tau,N_2,N_4,N_6,N_8,N_10,N_16
0.25,24.51113640571117,24.499627702877333,24.49750014296168,24.496755769797286,24.496411279290555,24.49603811548157
0.35050251256281406,17.828981392517615,17.813111572281073,17.810183279452115,17.809159162521798,17.808685280811783,17.808172007670617
0.4510050251256281,14.208248569483056,14.188249512101047,14.184569609094723,14.183283408468483,14.182688392070675,14.1820440131565
0.5515075376884422,11.970968443827534,11.947093951069393,11.942718343225831,11.94119030747536,11.94048364923133,11.939718534929478
0.6520100502512562,10.473261240454413,10.445761534905754,10.440748698184272,10.439000237694362,10.438192015171058,10.4373172031787
0.7525125628140703,9.414973021017316,9.384070573927389,9.378477531353523,9.376529857078419,9.375630111343598,9.374656640181668
0.8530150753768844,8.637336267368203,8.603205074289997,8.597083909203704,8.594956855861266,8.593975055223732,8.592913389574731
0.9535175879396985,8.048575092235058,8.011324751190918,8.00471988534438,8.002430997261918,8.001375621919168,8.000235208552551
1.0540201005025125,7.592052006317377,7.551717164507355,7.544663502503158,7.542227417260972,7.5411056810731845,7.539894652901988
1.1545226130653266,7.231031468949265,7.1875665248804905,7.180088455173631,7.177516582157571,7.17633429031821,7.175059317338803
1.2550251256281406,6.940746019438016,6.894024472058712,6.886135631357019,6.883436093653529,6.882197621840453,6.8808638934841655
1.3555276381909547,6.703976779067549,6.653794322237816,6.645497978470344,6.642675768586903,6.641384140891437,6.639995455355962
1.4560301507537687,6.50845266503652,6.454533012674997,6.445822899131614,6.4428801909690305,6.44153723014302,6.440096162180912
1.556532663316583,6.345248766534486,6.287251218494497,6.278112652087525,6.275049211371469,6.273655734769848,6.272163853192048
1.657035175879397,6.207761911523179,6.145289785264858,6.135700917896877,6.132514558466247,6.131070595388818,6.129528704006491
1.7575376884422111,6.091034249067217,6.023643465276182,6.013576542395369,6.010263584109807,6.008768594040274,6.0071769738230785
1.8580402010050252,5.99129453707026,5.918501825971628,5.9079243553206116,5.904480049115547,5.902933124808438,5.901291759811323
1.9585427135678393,5.905640015879908,5.826930382831221,5.815806145441346,5.812225040966767,5.810625084867163,5.808933859351633
2.059045226130653,5.83181159139575,5.746644831977361,5.734934694249095,5.731210934763468,5.729556801487424,5.727815660235098
2.159547738693467,5.7680324291404155,5.6758486086817195,5.6635111175565065,5.659638654832657,5.657929256167566,5.65613832401616
2.2600502512562812,5.712890522223676,5.613114430491405,5.600106192603404,5.596078921296653,5.594313293286973,5.592472953287539
2.3605527638190953,5.665252285552295,5.5572969452383845,5.543572805361439,5.53938462150858,5.537561955631474,5.5356728878830115
2.4610552763819094,5.624198364668903,5.5074677152818134,5.49298075950951,5.488625551595369,5.486745193809837,5.484808378977945
2.5615577889447234,5.588975549050827,5.462866449789832,5.447567865080004,5.443039448528169,5.44110087114233,5.439117563954215
2.6620603015075375,5.558960483547666,5.4228641840928375,5.4067030085982735,5.401995015770441,5.399997767682189,5.397969446381001
2.762562814070352,5.533632100231466,5.3869353214583136,5.369858120068777,5.364963858086254,5.362907499097977,5.360835797024375
2.863065326633166,5.512550544625441,5.354636296065631,5.336586793455663,5.331499081599335,5.329383106283079,5.327269731532367
2.96356783919598,5.495340969955749,5.325589210852079,5.306507910705189,5.3012189080227206,5.299042664116121,5.296889312700169
3.064070351758794,5.481681001078925,5.29946922995526,5.27929304450707,5.273794076761819,5.271556682401257,5.2693649496266595
3.1645728643216082,5.471290978812328,5.275994814749935,5.254656723867088,5.248938117283109,5.246638380612587,5.244409674561429
3.2650753768844223,5.463926320813178,5.254920119597559,5.232348873693171,5.2263998012336685,5.224036145136079,5.221771605279633
3.3655778894472363,5.459371500931658,5.236029031838038,5.212148908320032,5.205957252597322,5.203527646533434,5.201228069682312
3.4660804020100504,5.457435271727808,5.219130466404516,5.193861085262311,5.187413320695439,5.184915220943518,5.182580995982752
3.5665829145728645,5.457946846268954,5.2040546200478675,5.177310820718657,5.170591916278445,5.168022215267787,5.165653267469067
3.6670854271356785,5.460752823730204,5.1906499615762804,5.162341740435343,5.155335083267532,5.152690068203524,5.150285813362458
3.7675879396984926,5.465714694697437,5.178780788575708,5.1488132942520455,5.141500633647984,5.138775954236203,5.136335262452246
3.8680904522613067,5.472706800782636,5.168325222054991,5.136598804232276,5.128960214809566,5.126150859595929,5.123672028190959
3.9685929648241207,5.481614652408267,5.159173541530542,5.125583847879441,5.11759771041836,5.114697991061175,5.112178725908656
4.069095477386934,5.49233353076889,5.151226786611674,5.115664901927868,5.107307900054891,5.104311442719979,5.101748847116268
4.169597989949748,5.504767316795337,5.1443955689701495,5.106748190375954,5.097995321163327,5.094895064171122,5.092285634309147
4.2701005025125625,5.518827502744475,5.138599052045801,5.098748694170096,5.089573290701139,5.086361487541626,5.083701113629901
4.3706030150753765,5.534432351800985,5.133764065999025,5.091589290306871,5.08196305431402,5.0786312811690015,5.075915253262558
4.471105527638191,5.551506178547002,5.1298243330694735,5.085199995906202,5.075093038700051,5.071632205661801,5.068855223324062
4.571608040201005,5.569978728887561,5.126719784248855,5.079517298642126,5.068898188695495,5.065298553937348,5.062454738923453
4.672110552763819,5.5897846424341555,5.124395952490856,5.074483559276895,5.063319374993188,5.059570561223688,5.056653472458217
4.772613065326633,5.6108629837621535,5.122803430918047,5.07004647529393,5.058302861661798,5.054393874274111,5.051396524483243
4.873115577889447,5.633156831608868,5.121897386914348,5.066158597043893,5.0537998250517475,5.049719071459865,5.04663394490526
4.973618090452261,5.656612917148739,5.12163712481664,5.062776889617309,5.049765917465515,5.045501227195446,5.042320298040966
5.074120603015075,5.6811813041066435,5.1219856912946415,5.059862334996818,5.046160870298234,5.041699515473823,5.038414266394703
5.174623115577889,5.706815104753346,5.122909518550132,5.057379570042293,5.04294813234096,5.038276848269106,5.034878288984716
5.275125628140704,5.7334702268469115,5.12437810126154,5.055296556612797,5.0400945396748265,5.03519954529307,5.031678230768551
5.375628140703518,5.761105147400086,5.126363703812359,5.053584280697522,5.0375700141374145,5.032437032137974,5.0287830802564235
5.476130653266332,5.789680709811506,5.1288410948195855,5.0522164778628555,5.035347287763026,5.0299615642516216,5.0261646728074245
5.576633165829146,5.819159941432659,5.131787306356635,5.051169382660897,5.033401650922992,5.0277479745085385,5.023797437414214
5.67713567839196,5.8495078890793515,5.135181415569753,5.0504214999125665,5.031710722147298,5.025773442390315,5.021658165024547
5.777638190954774,5.880691470356228,5.1390043466368,5.04995339599512,5.030254237814157,5.024017282988103,5.019725796641898
5.878140703517588,5.912679338961401,5.143238691226212,5.04974750844323,5.029013860063392,5.022460754204703,5.017981229606683
5.978643216080402,5.94544176238752,5.147868545791713,5.049787972324693,5.027973001432585,5.021086880672578,5.016407140593806
6.0791457286432165,5.978950510645188,5.152879364192514,5.050060461983253,5.027116664838814,5.01988029302432,5.0149878239784975
6.1796482412060305,6.013178754811905,5.158257824264075,5.050552046856997,5.0264312976382435,5.0188270812584905,5.0137090443252506
6.280150753768845,6.048100974360342,5.163991707085211,5.051251060184696,5.025904658594292,5.017914661039542,5.01255790184766
6.380653266331659,6.083692872348686,5.170069787795766,5.052146979506757,5.025525696674818,5.017131651858051,5.011522709771942
6.481155778894473,6.11993129766637,5.176481736917431,5.053230317953843,5.025284440681365,5.016467766058268,5.01059288261569
6.581658291457287,6.156794173624013,5.183218031219984,5.0544925253958475,5.025171898790022,5.015913707815028,5.009758834466775
6.682160804020101,6.194260432258936,5.190269873257303,5.055925898597613,5.025179967154707,5.01546108121206,5.009011886415906
6.782663316582915,6.232309953799516,5.197629118772848,5.057523499596231,5.025301346790056,5.015102306639167,5.00834418236073
6.883165829145729,6.270923510794113,5.2052882112435785,5.059279081578268,5.025529468013095,5.014830544786982,5.007748612459678
6.983668341708543,6.310082716465085,5.2132401228949945,5.06118702159436,5.025858421780693,5.014639627575218,5.007218743570316
7.084170854271357,6.349769976896239,5.221478301578532,5.063242259503381,5.026282897313722,5.014523995403814,5.006748756059898
7.184673366834171,6.38996844670422,5.229996622956523,5.0654402425892755,5.026798125448943,5.014478640166175,5.006333386425263
7.285175879396985,6.430661987881329,5.238789347489376,5.067776875340726,5.027399827206387,5.014499053510181,5.005967875205376
7.385678391959799,6.471835131529969,5.2478510817651385,5.0702484739274025,5.0280841671031355,5.014581179875664,5.005647919712666
7.486180904522613,6.51347304223769,5.2571767437532975,5.072851724946721,5.028847710784504,5.014721373877084,5.00536963114926
7.586683417085427,6.555561484867446,5.266761531602865,5.075583648052202,5.029687386580629,5.0149163616370585,5.0051294957110475
7.687185929648241,6.598086793560192,5.276600895639798,5.0784415621085435,5.030600450630613,5.015163205710638,5.004924339316718
7.7876884422110555,6.641035842767105,5.286690513250765,5.0814230545500365,5.031584455247801,5.0154592732716,5.004751295630446
7.88819095477387,6.684396020146504,5.2970262663694125,5.084525953647631,5.032637220228706,5.015802207261149,5.004607777075891
7.988693467336684,6.728155201176509,5.307604221308033,5.087748303416415,5.033756806834603,5.01618990022593,5.004491448565972
8.089195979899497,6.772301725348555,5.318420610701702,5.0910883409194545,5.034941494199199,5.016620470596797,5.0044002036973465
8.18969849246231,6.8168243738195455,5.329471817354135,5.094544475745999,5.0361897579380335,5.0170922411820955,5.004332143181101
8.290201005025125,6.861712348411775,5.340754359794593,5.098115271462256,5.037500250755627,5.01760371966978,5.004285555301711
8.390703517587939,6.90695525185977,5.352264879373462,5.10179942885139,5.038871784865071,5.0181535809514015,5.004258898215242
8.491206030150753,6.9525430692122985,5.3640001287407415,5.105595770776162,5.040303316051683,5.018740651098076,5.004250783914982
8.591708542713567,6.998466150305939,5.375956961566742,5.109503228512951,5.04179392922786,5.019363892834251,5.0042599637084315
8.692211055276381,7.044715193233849,5.388132323377994,5.113520829419828,5.043342825340379,5.020022392369182,5.004285315063931
8.792713567839195,7.0912812287399705,5.400523243393735,5.117647685814026,5.0449493095042435,5.020715347459139,5.004325829698313
8.89321608040201,7.138155605474802,5.413126827259586,5.121882984945685,5.046612780248847,5.021442056585038,5.004380602788842
8.993718592964823,7.18532997605422,5.42594025058525,5.1262259799652155,5.048332719772859,5.022201909141009,5.004448823203595
9.094221105527637,7.2327962838676125,5.438960753202163,5.130675981791164,5.050108685113882,5.022994376539091,5.004529764654258
9.194723618090451,7.280546750585965,5.452185634065493,5.135232351794082,5.0519403001477174,5.023819004144199,5.004622777684319
9.295226130653266,7.328573864324468,5.465612246732293,5.139894495219762,5.053827248340013,5.024675403961454,5.004727282413744
9.39572864321608,7.376870368417782,5.479237995354523,5.144661855282329,5.055769266180302,5.025563248005353,5.004842761968675
9.496231155778894,7.425429250769357,5.493060331131719,5.149533907864112,5.057766137234994,5.026482262286847,5.00496875653133
9.596733668341708,7.474243733739111,5.507076749173737,5.154510156765135,5.059817686761801,5.0274322213603995,5.005104857951478
9.697236180904522,7.523307264536498,5.521284785728932,5.159590129450304,5.061923776833509,5.028412943378592,5.005250704866294
9.797738693467336,7.572613506088406,5.5356820157377244,5.164773373247272,5.064084301923847,5.029424285606734,5.005405978280475
9.89824120603015,7.6221563283535785,5.550266050675559,5.1700594519522705,5.06629918491264,5.030466140354464,5.005570397563037
9.998743718592964,7.671929800057242,5.565034536652954,5.1754479428052065,5.068568373471462,5.031538431285322,5.0057437168213
10.099246231155778,7.721928180821588,5.579985152743705,5.180938433798879,5.07089183679461,5.03264111006905,5.005925721616353
10.199748743718592,7.7721459136693,5.5951156095152,5.186530521290465,5.073269562643517,5.033774153344584,5.006116225987615
10.300251256281408,7.822577617879084,5.610423647737647,5.192223807886355,5.075701554675727,5.034937559964845,5.006315069757251
10.400753768844222,7.8732180821733895,5.6259070372513245,5.1980179005741105,5.078187830032188,5.036131348497043,5.006522116087882
10.501256281407036,7.924062258220014,5.64156357597322,5.203912409077734,5.080728417159156,5.037355554954805,5.0067372492696265
10.60175879396985,7.975105254430355,5.657391089026398,5.2099069444146755,5.083323353843133,5.0386102307405665,5.006960372714753
10.702261306532664,8.026342330038279,5.673387427977167,5.216001117634934,5.0859726854392955,5.039895440778766,5.00719140714026
10.802763819095478,8.077768889444599,5.6895504701667825,5.222194538724523,5.08867646327572,5.041211261822197,5.007430288920628
10.903266331658292,8.129380476813063,5.705878118125787,5.2284868156571145,5.091434743217291,5.042557780915507,5.007676968594601
11.003768844221106,8.1811727709047,5.722368299060444,5.234877553579229,5.094247584374701,5.043935094001389,5.007931409511457
11.10427135678392,8.233141580138128,5.739018964401845,5.241366354115682,5.097115047945336,5.045343304656314,5.008193586603558
11.204773869346734,8.285282837864234,5.755828089409318,5.247952814783212,5.100037196173968,5.046782522943932,5.00846348527325
11.305276381909549,8.337592597844315,5.772793672820721,5.254636528501337,5.103014091422376,5.048252864375352,5.0087411003833
11.405778894472363,8.390067029921438,5.789913736543021,5.261417083190514,5.106045795337966,5.04975444896655,5.009026435341102
11.506281407035177,8.442702415875308,5.807186325377331,5.268294061448569,5.109132368112394,5.0512874003840205,5.009319501267812
11.60678391959799,8.495495145451669,5.824609506773243,5.27526704029722,5.11227386782199,5.052851845170694,5.009620316244359
11.707286432160805,8.548441712557578,5.842181370607905,5.2823355909912735,5.11547034984257,5.054447912044776,5.009928904627139
11.807788944723619,8.601538711614529,5.859900028985843,5.289499278883739,5.118721866331853,5.05607573126498,5.010245296426798
11.908291457286433,8.654782834061814,5.877763616055971,5.296757663340776,5.122028465773352,5.057735434056103,5.01056952674417
12.008793969849247,8.708170865002927,5.895770287842756,5.304110297700914,5.125390192576136,5.0594271520895555,5.0109016352579925
12.109296482412061,8.761699679988224,5.913918222088765,5.311556729273531,5.128807086725382,5.061151017013893,5.011241665759547
12.209798994974875,8.815366241927425,5.932205618106309,5.319096499372029,5.132279183479084,5.062907160030891,5.011589665729808
12.31030150753769,8.869167598125895,5.95063069663608,5.326729143377584,5.135806513106708,5.064695711513094,5.011945685955116
12.410804020100503,8.923100877438984,5.969191699711046,5.334454190829734,5.139389100665948,5.066516800659151,5.0123097801777625
12.511306532663317,8.977163287538938,5.987886890524058,5.34227116554042,5.143026965814094,5.068370555183597,5.012682004778238
12.611809045226131,9.031352112289314,6.006714553297865,5.350179585728401,5.146720122650822,5.070257101038024,5.01306241848616
12.712311557788945,9.085664709221971,6.025672993156434,5.358178964171313,5.150468579589505,5.0721765621609,5.013451082117207
12.81281407035176,9.140098507112025,6.0447605359966055,5.36626880837282,5.154272339254405,5.074129060253496,5.013848058333661
12.913316582914574,9.194651003646413,6.063975528359319,5.374448620742618,5.158131398401309,5.076114714579653,5.014253411426329
13.013819095477388,9.249319763181877,6.083316337299722,5.3827178987872575,5.1620457478594455,5.078133641787319,5.014667207115869
13.114321608040202,9.304102414588435,6.102781350255666,5.391076135309933,5.166015372492625,5.080185955749927,5.015089512371728
13.214824120603016,9.358996649174612,6.122368974914095,5.3995228186175686,5.170040251177815,5.082271767425953,5.015520395247055
13.31532663316583,9.414000218690814,6.142077639075037,5.4080574327337425,5.174120356799448,5.084391184735028,5.015959924728106
13.415829145728644,9.469110933407546,6.161905790512899,5.416679457616059,5.178255656257933,5.086544312449215,5.016408170596816
13.516331658291458,9.524326660265164,6.181851896834888,5.425388369376819,5.1824461104909965,5.088731252098136,5.016865203305319
13.616834170854272,9.57964532109219,6.201914445336416,5.434183640505859,5.186691674506539,5.090952101886769,5.017331093861329
13.717336683417086,9.635064890889208,6.2220919428534165,5.443064740094638,5.190992297425883,5.093206956624827,5.017805913723365
13.8178391959799,9.690583396175622,6.242382915611521,5.452031134060666,5.195347922536302,5.09549590766674,5.018289734704956
13.918341708542714,9.746198913396602,6.262785909072136,5.461082285371558,5.199758487351898,5.097819042861337,5.018782628886978
14.018844221105528,9.801909567387739,6.2832994877754,5.470217654267978,5.204223923681892,5.100176446510404,5.019284668537397
14.119346733668342,9.857713529894982,6.303922235180137,5.479436698484922,5.208744157705552,5.102568199335373,5.019795926037751
14.219849246231156,9.913609018147605,6.324652753500878,5.488738873470757,5.213319110052976,5.104994378451441,5.020316473815762
14.32035175879397,9.96959429348201,6.345489663542057,5.498123632603597,5.217948695891078,5.1074550573485205,5.020846384283526
14.420854271356784,10.02566766001431,6.366431604529503,5.507590427404558,5.222632825014128,5.109950305878402,5.021385729780778
14.521356783919598,10.0818274633597,6.387477233939372,5.51713870774758,5.227371401938278,5.112480190247648,5.021934582522799
14.621859296482413,10.13807208939672,6.408625227324685,5.526767922065468,5.2321643259995705,5.115044773015706,5.0224930145525315
14.722361809045227,10.194399963074654,6.429874278139585,5.536477517551925,5.237011491454922,5.1176441130978025,5.023061097696544
14.82286432160804,10.250809547262278,6.451223097561531,5.546266940359306,5.241912787585656,5.1202782657722405,5.023638903524512
14.923366834170855,10.307299341636371,6.472670414311545,5.556135635791958,5.246868098803191,5.122947282691677,5.024226503311903
15.023869346733669,10.363867881608394,6.4942149744727224,5.566083048494939,5.2518773047564995,5.125651211898086,5.02482396800559
15.124371859296483,10.420513737287846,6.515855541307145,5.576108622638022,5.2569402804410235,5.128390097841071,5.025431368192139
15.224874371859297,10.477235512480844,6.537590895071387,5.586211802094859,5.262056896308717,5.131163981399233,5.026048774068552
15.325376884422111,10.534031843722607,6.559419832830776,5.596392030617252,5.26722701837895,5.1339728999043475,5.0266762554152535
15.425879396984925,10.59090139934247,6.581341168272575,5.606648752004457,5.272450508350017,5.136816887168084,5.027313881571126
15.52638190954774,10.647842878560217,6.603353731518251,5.61698141026748,5.277727223711001,5.139695973511062,5.027961721410432
15.626884422110553,10.704855010612544,6.62545636893499,5.627389449788373,5.28305701785381,5.14261018579401,5.028619843321475
15.727386934673367,10.761936553908443,6.647647942946619,5.637872315474487,5.2884397401851455,5.145559547450871,5.029288315186832
15.827889447236181,10.819086295212507,6.669927331844083,5.648429452907741,5.293875236238281,5.148544078523637,5.029967204365069
15.928391959798995,10.876303048854998,6.692293429595624,5.659060308488871,5.299363347784433,5.1515637956987845,5.030656577673786
