tau,N_2,N_4,N_6,N_8,N_10,N_16
0.25,24.49580025419829,24.495799009675782,24.49579894304902,24.495798931836216,24.495798928771926,24.495798926970355
0.35050251256281406,17.80784662605319,17.807843264855542,17.8078430847872,17.80784305447891,17.807843046195696,17.80784304132564
0.4510050251256281,14.181638514242097,14.181631537615022,14.181631163518034,14.181631100540368,14.181631083327519,14.181631073206939
0.5515075376884422,11.939241505594484,11.9392291409816,11.939228477221516,11.939228365455147,11.93922833490499,11.939228316941616
0.6520100502512562,10.436777880497003,10.43675816496663,10.436757105163215,10.43675692666154,10.436756877865134,10.436756849171294
0.7525125628140703,9.374064409781475,9.3740352633759,9.374033694171894,9.374033429789517,9.374033357507802,9.37403331500085
0.8530150753768844,8.592277361437976,8.592236642995593,8.59223444690446,8.5922340767709,8.59223397556358,8.592233916041451
0.9535175879396985,7.999563898804453,7.999509440692317,7.9995064978398025,7.999506001647323,7.999505865950968,7.99950578613788
1.0540201005025125,7.539195782531204,7.539125404561851,7.539121593337788,7.539120950446001,7.539120774602058,7.539120671164796
1.1545226130653266,7.174339723483336,7.1742512294034775,7.174246426205619,7.174245615593295,7.1742453938343616,7.174245263373968
1.2550251256281406,6.8801295376774965,6.880020699636953,6.880014777998249,6.880013778111273,6.880013504518909,6.880013343545655
1.3555276381909547,6.639251506483303,6.639120043740402,6.639112873180467,6.6391116617331924,6.639111330182978,6.639111135083801
1.4560301507537687,6.439347129458989,6.439190687387669,6.4391821323245395,6.4391806861113094,6.439180290220621,6.439180057228143
1.556532663316583,6.271413745355244,6.271229879842584,6.271219798854867,6.271218093620854,6.27121762671285,6.271217351883902
1.657035175879397,6.128781193994444,6.128567364846078,6.128555610502728,6.128553620911228,6.128553076005213,6.12855275521488
1.7575376884422111,6.006435552632502,6.0061891279112585,6.0061755473002245,6.006173247019236,6.006172616853725,6.006172245808636
1.8580402010050252,5.900559868001289,5.900278139539586,5.900262575539098,5.900259937455425,5.90025921454624,5.900258788818499
1.9585427135678393,5.8082149893987625,5.80789519822069,5.8078774914767655,5.80787448803249,5.807873664764544,5.807873179845545
2.059045226130653,5.7271134271424025,5.726752796323869,5.726732787831029,5.726729391465936,5.726728460214324,5.7267279115858996
2.159547738693467,5.65545650506397,5.655052276714982,5.655029810847735,5.655025994522952,5.655024947796656,5.655024331015644
2.2600502512562812,5.591815500474183,5.591364973067059,5.591339900879184,5.591335638652012,5.591334469252079,5.59133378004356
2.3605527638190953,5.535043918422165,5.534544480596756,5.534516663193196,5.5345119308109005,5.534510631994351,5.534509866348407
2.4610552763819094,5.484212150248538,5.483661307453772,5.483630619244376,5.483625394725314,5.4836239603661525,5.483623114633112
2.5615577889447234,5.438558439633195,5.4379538304468005,5.437920162109126,5.437914426282389,5.437912851021879,5.43791192200141
2.6620603015075375,5.397451860253854,5.3967912598812475,5.39675452088757,5.396748257866904,5.396746537246465,5.396745522266644
2.762562814070352,5.360364220303151,5.359645529512791,5.3596056501105,5.359598847683833,5.359596978255467,5.359595875238793
2.863065326633166,5.326848648557151,5.326069867090145,5.326026799661189,5.326019449583143,5.326017428993899,5.326016236508205
2.96356783919598,5.296523208789114,5.2956823930242205,5.295636112785028,5.295628210965765,5.295626038014411,5.29562475530758
3.064070351758794,5.26905831368533,5.268153519001008,5.268104024036911,5.268095570626078,5.268093245291614,5.26809187230986
3.1645728643216082,5.244167017954239,5.243196226777408,5.24314353743329,5.243134536802559,5.243132060245478,5.2431305976357265
3.2650753768844223,5.221597497469753,5.220558534422278,5.22050269209309,5.220493152724443,5.220490527262703,5.2204889763602
3.3655778894472363,5.2011271903018885,5.200017626149152,5.199958691529758,5.199948625819437,5.199945854881814,5.199944217684534
3.4660804020100504,5.182558202321987,5.181375248601906,5.181313299465683,5.181302723455443,5.181299811515444,5.18129809064715
3.5665829145728645,5.165713675872411,5.164454072152936,5.164389200733352,5.16437813378154,5.164375086275314,5.164373284939276
3.6670854271356785,5.150434892682164,5.149094788379466,5.149027098429231,5.149015562834357,5.149012386066047,5.149010507991485
3.7675879396984926,5.1365789375147095,5.1351537701227,5.135083373722047,5.135071394311049,5.135068095348972,5.135066144732155
3.8680904522613067,5.124016791156267,5.122501162609618,5.122428176789684,5.1224157804822426,5.122412367049014,5.122410348490913
3.9685929648241207,5.112631753423771,5.111019306158283,5.110943849398373,5.110931064757435,5.11092754511685,5.110925463558969
4.069095477386934,5.1023181212534725,5.100601415353557,5.100523604002899,5.100510460780248,5.100506843623391,5.100504704283255
4.169597989949748,5.092980065422253,5.091150458066702,5.091070402732831,5.091056931417139,5.091053225749794,5.0910510340573305
4.2701005025125625,5.08453066343302,5.08257819167543,5.082495993613031,5.082482224986431,5.082478440019506,5.0824762015553375
4.3706030150753765,5.076891056624893,5.074804324380056,5.074720071906196,5.074706036614081,5.074702181658393,5.074699902094845
4.471105527638191,5.06998970746792,5.067755777423473,5.0676695423780345,5.067655270515571,5.067651354881999,5.067649039927455
4.571608040201005,5.063761738902699,5.061366029938656,5.061277864202355,5.061263384920117,5.061259417825855,5.061257073172888
4.672110552763819,5.058148341975068,5.055574532552661,5.055484464629655,5.055469805759803,5.055465796241161,5.055463427518738
4.772613065326633,5.053096241268813,5.050326179144394,5.050234210811803,5.0502193985154245,5.050215355347419,5.050212968077344
4.873115577889447,5.048557210041506,5.045570828569824,5.045476931592787,5.045461990028348,5.045457921651124,5.045455521208758
4.973618090452261,5.04448762873804,5.041262869950903,5.04116698285878,5.04115193387105,5.041147848323035,5.041145439902269
5.074120603015075,5.040848081858121,5.03736082643765,5.037262851354718,5.037247714183107,5.037243619040663,5.037241207623015
5.174623115577889,5.037602989112112,5.0338269933210436,5.033726792843375,5.033711583848274,5.033707486171521,5.033705076499206
5.275125628140704,5.034720267507039,5.030627107090336,5.030524501199425,5.030509233604876,5.030505139889297,5.0305027364420525
5.375628140703518,5.032171021530175,5.027730042561284,5.027624805564335,5.027609489215178,5.027605405348545,5.027603012323958
5.476130653266332,5.029929258992261,5.025107535602452,5.02499939308893,5.024984034220465,5.0249799654446115,5.0249775867417075
5.576633165829146,5.027971630393207,5.02273392929261,5.022622555096724,5.022607156114851,5.022603106991774,5.02260074619757
5.67713567839196,5.026277189907044,5.020585941580327,5.020470954739406,5.020455514009177,5.0204514883909575,5.020449148769715
5.777638190954774,5.0248271762692704,5.01864245270683,5.018523414405978,5.018507926046525,5.0185039270485445,5.018501611533422
5.878140703517588,5.023604812002402,5.016884310808624,5.0167607213027905,5.016745174986615,5.016741204963563,5.016738916150398
5.978643216080402,5.022595119544153,5.0152941542476555,5.015165449752936,5.015149830507607,5.0151458910317785,5.015143631174739
6.0791457286432165,5.021784752954014,5.013856249330151,5.013721798877025,5.013706086887437,5.013702178728833,5.013699949737636
6.1796482412060305,5.02116184397274,5.012556342175923,5.012415444418058,5.012399614827433,5.012395737935212,5.0123935413737035
6.280150753768845,5.020715861298546,5.01138152359091,5.01123340356405,5.011217426272033,5.011213579756869,5.011211416842695
6.380653266331659,5.020437482025712,5.01032010587906,5.010163911705571,5.010147751161819,5.010143933278744,5.010141804883903
6.481155778894473,5.020318474267319,5.009361510607202,5.009196310142708,5.0091799251345135,5.00917613326587,5.009174039917913
6.581658291457287,5.020351590054761,5.008496166408676,5.008320943828255,5.008304287260828,5.008300517898952,5.008298459782665
6.682160804020101,5.0205304676731775,5.00771541597934,5.007529068301625,5.007512086969793,5.007508335699094,5.007506312658441
6.782663316582915,5.020849542654438,5.007011431483172,5.006812765031641,5.006795399381808,5.00679166085992,5.0067896724001155
6.883165829145729,5.021303966707908,5.006377137644506,5.006164864446073,5.00614704832741,5.006143316265147,5.006141361554662
6.983668341708543,5.021889533924293,5.005806141860065,5.005578875981947,5.0055605363858655,5.005556803525679,5.005554881398075
7.084170854271357,5.022602613639397,5.005292670716622,5.005048924543181,5.005029981330269,5.0050262394229925,5.005024348378414
7.184673366834171,5.023440089392898,5.004831512349311,5.004569692801372,5.004550058415029,5.004546298194666,5.004544436400915
7.285175879396985,5.024399303462185,5.004417964121671,5.004136368821409,5.0041159479875645,5.00411215914393,5.004110324436975
7.385678391959799,5.025478006493274,5.004047785151287,5.003744598536483,5.003723287948808,5.003719459097831,5.0037176489816835
7.486180904522613,5.026674311789726,5.003717153244759,5.00339044263675,5.0033681306269076,5.003364249278437,5.003362460924286
7.586683417085427,5.027986653856629,5.00342262584264,5.003070337472839,5.003046903665378,5.003042956188331,5.003041186432879
7.687185929648241,5.029413750830107,5.003161104609241,5.0027810596095454,5.002756374561108,5.002752346145846,5.002750591488759
7.7876884422110555,5.03095457045376,5.002929803333708,5.002519693696575,5.002493618519181,5.002489493136985,5.002487749737408
7.88819095477387,5.0326082992918355,5.002726218838,5.002283603352299,5.002255989320527,5.002251749680066,5.002250013352148
7.988693467336684,5.03437431489527,5.002548104614155,5.002070404783251,5.002041092925194,5.002036720425917,5.002034986633297
8.089195979899497,5.036252160660794,5.002393446937905,5.001877942886698,5.00184676355865,5.001842238240988,5.001840502090196
8.18969849246231,5.0382415231455,5.002260443228344,5.0017042696062015,5.001671042051054,5.001666342543409,5.001664598776159
8.290201005025125,5.040342211619608,5.0021474824440535,5.001547624330771,5.001512156220199,5.001507259682619,5.0015055026669595
8.390703517587939,5.042554139658816,5.002053127325098,5.001406416147154,5.0013685031076776,5.001363385172203,5.001361608892494
8.491206030150753,5.044877308594733,5.00197609830768,5.001279207772165,5.001238632895219,5.001233267602849,5.001231465648549
8.591708542713567,5.047311792657476,5.001915258954051,5.001164701007671,5.001121234343911,5.001115594078149,5.001113759631398
8.692211055276381,5.049857725658937,5.0018696027548,5.001061723575435,5.001015121613475,5.001009177030447,5.001007302852423
8.792713567839195,5.052515289078191,5.001838241173817,5.000969217202052,5.0009192223319054,5.000912942287026,5.000911020703071
8.89321608040201,5.055284701422618,5.001820392818236,5.000886226836272,5.0008325667978175,5.000825918268981,5.000823941152486
8.993718592964823,5.058166208749128,5.001815373626663,5.000811890891911,5.000754278208698,5.0007472262160055,5.000745184971041
9.094221105527637,5.061160076239993,5.001822587978885,5.000745432419484,5.000683563818234,5.000676071340245,5.000673956882939
9.194723618090451,5.064266580736839,5.0018415206394025,5.0006861511187175,5.000619706934931,5.000611734821442,5.000609537560103
9.295226130653266,5.067486004144755,5.0018717294552735,5.0006334161123185,5.000562059682393,5.0005535665637515,5.0005512763777284
9.39572864321608,5.070818627626061,5.001912838736315,5.000586659408865,5.000510036449146,5.00050097864212,5.000498584859399
9.496231155778894,5.0742647265102825,5.001964533252465,5.000545369989383,5.000463107962656,5.000453439372841,5.000450930746386
9.596733668341708,5.0778245658532155,5.002026552789277,5.0005090884584185,5.000420795928251,5.000410467949083,5.0004078326319155
9.697236180904522,5.081498396583795,5.0020986872081155,5.000477402205916,5.0003826681794195,5.000371629587755,5.0003688551067675
9.797738693467336,5.085286452182805,5.002180771962722,5.000449941031294,5.000348334290774,5.000336531139111,5.0003336043676345
9.89824120603015,5.089188945842307,5.002272684028393,5.000426373185767,5.00031744160981,5.000304817115138,5.000301724244238
9.998743718592964,5.093206068059127,5.00237433820418,5.000406401792978,5.000289671667524,5.000276166096847,5.000272892605383
10.099246231155778,5.09733798461978,5.002485683752367,5.000389761611954,5.000264736931896,5.0002502874844605,5.000246818107878
10.199748743718592,5.10158483493796,5.002606701342796,5.000376216109668,5.000242377871574,5.000226918557811,5.000223237255694
10.300251256281408,5.105946730709074,5.0027374002728475,5.000365554813662,5.000222360300179,5.000205821817421,5.000201911739793
10.400753768844222,5.110423754849458,5.0028778159365626,5.000357590917999,5.000204472974535,5.000186782579519,5.000182626031908
10.501256281407036,5.115015960690701,5.003028007519057,5.000352159118297,5.000188525422588,5.000169606800799,5.00016518520804
10.60175879396985,5.119723371402159,5.003188055894598,5.000349113653949,5.0001743459791115,5.000154119110985,5.000149412979803
10.702261306532664,5.124545979617101,5.003358061708826,5.000348326537713,5.000161780009385,5.000140161033428,5.000135149913766
10.802763819095478,5.129483747240081,5.003538143627518,5.000349685954694,5.000150688302913,5.000127589375763,5.00012225182088
10.903266331658292,5.134536605415189,5.003728436735949,5.0003530948145185,5.0001409456209345,5.000116274774416,5.000110588299747
11.003768844221106,5.13970445463659,5.003929091074508,5.000358469442007,5.000132439383066,5.0001061003782805,5.00010004141906
11.10427135678392,5.144987164984512,5.004140270297548,5.000365738393041,5.0001250684797744,5.000096960658271,5.000090504525921
11.204773869346734,5.150384576471302,5.004362150443803,5.000374841383613,5.000118742198672,5.00008876033074,5.000081881168031
11.305276381909549,5.155896499483606,5.004594918807772,5.0003857283211905,5.000113379253757,5.000081413383893,5.000074084118858
11.405778894472363,5.16152271530806,5.004838772902545,5.000398358428546,5.000108906907751,5.000074842197358,5.000067034495993
11.506281407035177,5.167262976728945,5.005093919505461,5.000412699451157,5.000105260178657,5.00006897674601,5.000060660963728
11.60678391959799,5.173117008687459,5.00536057377883,5.000428726940131,5.000102381122483,5.0000637538800214,5.000054899011878
11.707286432160805,5.179084508993158,5.005638958458749,5.000446423603371,5.00010021818482,5.000059116673831,5.000049690303526
11.807788944723619,5.185165149079075,5.005929303105659,5.000465778718389,5.000098725614743,5.000055013837465,5.000044982085107
11.908291457286433,5.191358574792816,5.0062318434109905,5.000486787600833,5.0000978629350135,5.000051399184259,5.000040726652892
12.008793969849247,5.197664407216716,5.006546820554749,5.000509451123316,5.000097594463254,5.000048231149555,5.000036880870476
12.109296482412061,5.204082243510807,5.006874480609421,5.000533775279688,5.0000978888791705,5.000045472355561,5.00003340573238
12.209798994974875,5.210611657773026,5.007215073986059,5.000559770790349,5.000098718833443,5.000043089217904,5.000030265969399
12.31030150753769,5.217252201911596,5.007568854918742,5.000587452744606,5.000100060594283,5.00004105158993,5.0000274296916585
12.410804020100503,5.224003406525118,5.007936080984114,5.00061684027649,5.0001018937280595,5.000039332441125,5.000024868065814
12.511306532663317,5.230864781786368,5.008317012652859,5.000647956270755,5.000104200810715,5.000037907566409,5.000022555023112
12.611809045226131,5.237835818326181,5.008711912870463,5.000680827096127,5.000106967167032,5.0000367553233325,5.000020466995364
12.712311557788945,5.244915988114337,5.00912104666472,5.000715482363141,5.0001101806350805,5.000035856394529,5.000018582676175
12.81281407035176,5.252104745334561,5.009544680777818,5.000751954704149,5.00011383135342,5.000035193573,5.000016882805003
12.913316582914574,5.259401527251246,5.009983083320959,5.0007902795733346,5.0001179115688865,5.000034751568043,5.000015349971864
13.013819095477388,5.266805755065681,5.010436523449733,5.000830495064749,5.00012241546298,5.000034516829861,5.000013968440727
13.114321608040202,5.274316834759946,5.010905271058625,5.000872641746622,5.000127338995059,5.000034477391065,5.0000127239897925
13.214824120603016,5.2819341579268215,5.011389596493167,5.000916762510306,5.000132679760743,5.000034622723437,5.000011603767049
13.31532663316583,5.289657102584306,5.011889770278458,5.000962902432421,5.0001384368640505,5.0000349436085205,5.000010596159655
13.415829145728644,5.297485033973559,5.012406062862819,5.0010111086488855,5.00014461080194,5.000035432020707,5.000009690675803
13.516331658291458,5.305417305339255,5.012938744375559,5.001061430239651,5.000151203360082,5.000036081021603,5.000008877837903
13.616834170854272,5.3134532586915295,5.013488084397836,5.001113918123065,5.000158217518755,5.000036884664627,5.000008149085966
13.717336683417086,5.321592225548803,5.014054351745796,5.001168624958882,5.000165657367902,5.0000378379088435,5.000007496690257
13.8178391959799,5.329833527660966,5.014637814265159,5.001225605059096,5.000173528030462,5.0000389365411495,5.000006913672286
13.918341708542714,5.338176477712504,5.0152387386365636,5.001284914305743,5.000181835593166,5.000040177106021,5.000006393733374
14.018844221105528,5.346620380005241,5.01585739019103,5.001346610075015,5.0001905870440755,5.000041556842085,5.000005931190052
14.119346733668342,5.355164531120506,5.016494032734933,5.001410751167009,5.00019979021622,5.000043073624877,5.00000552091565
14.219849246231156,5.363808220560609,5.017148928383998,5.001477397740566,5.000209453736732,5.000044725915177,5.000005158287467
14.32035175879397,5.372550731369594,5.017822337405808,5.00154661125263,5.000219586980929,5.000046512712402,5.000004839139019
14.420854271356784,5.381391340733284,5.018514518070391,5.001618454401717,5.0002302000308925,5.000048433512565,5.000004559716848
14.521356783919598,5.390329320558753,5.019225726508516,5.001692991075011,5.0002413036380675,5.0000504882703565,5.000004316641472
14.621859296482413,5.399363938033342,5.0199562165772855,5.001770286298746,5.000252909189515,5.000052677364971,5.000004106872079
14.722361809045227,5.40849445616347,5.0207062397327595,5.001850406191521,5.000265028677437,5.000055001569291,5.00000392767461
14.82286432160804,5.417720134293433,5.02147604490924,5.001933417920216,5.000277674671664,5.00005746202214,5.000003776592893
14.923366834170855,5.427040228604538,5.022265878404983,5.002019389658267,5.0002908602948075,5.000060060203279,5.000003651422553
15.023869346733669,5.4364539925948385,5.023075983774068,5.002108390546028,5.000304599199807,5.000062797910898,5.000003550187428
15.124371859296483,5.4459606775398495,5.023906601724163,5.002200490652992,5.000318905549628,5.000065677241366,5.000003471118238
15.224874371859297,5.455559532934608,5.024757970020008,5.002295760941684,5.00033379399892,5.000068700571012,5.000003412633321
15.325376884422111,5.465249806917456,5.025630323392369,5.002394273233041,5.000349279677396,5.000071870539737,5.000003373321202
15.425879396984925,5.475030746675974,5.026523893452301,5.002496100173118,5.000365378174784,5.000075190036303,5.0000033519248515
15.52638190954774,5.484901598835457,5.0274389086105105,5.002601315200953,5.0003821055271995,5.000078662185111,5.000003347327449
15.626884422110553,5.4948616098304015,5.0283755940016786,5.002709992517514,5.000399478204752,5.000082290334338,5.000003358539527
15.727386934673367,5.504910026259413,5.029334171413559,5.002822207055554,5.0004175131002935,5.000086078045293,5.00000338468735
15.827889447236181,5.51504609522398,5.030314859220718,5.002938034450312,5.000436227519181,5.000090029082891,5.0000034250024115
15.928391959798995,5.525269064651586,5.03131787232275,5.003057551010949,5.000455639169924,5.000094147407107,5.000003478811946
