tau,N_15
0.25,26.125227640439707
0.35050251256281406,20.81651011801333
0.4510050251256281,18.040082687480748
0.5515075376884422,16.395291078556255
0.6520100502512562,15.344693332581933
0.7525125628140703,14.63848590967507
0.8530150753768844,14.145546894829213
0.9535175879396985,13.79110768997958
1.0540201005025125,13.529930535679924
1.1545226130653266,13.333405502994767
1.2550251256281406,13.18280302024845
1.3555276381909547,13.06551293825235
1.4560301507537687,12.972841960010076
1.556532663316583,12.898672424646572
1.657035175879397,12.838619530134398
1.7575376884422111,12.789487817988418
1.8580402010050252,12.748912821844753
1.9585427135678393,12.715120190950714
2.059045226130653,12.686760955148623
2.159547738693467,12.662797072788894
2.2600502512562812,12.642420745336626
2.3605527638190953,12.624996756394035
2.4610552763819094,12.610020734022406
2.5615577889447234,12.597088572281661
2.6620603015075375,12.585873771720433
2.762562814070352,12.576110466469698
2.863065326633166,12.567580581178618
2.96356783919598,12.5601040195253
3.064070351758794,12.553531100881775
3.1645728643216082,12.547736680357776
3.2650753768844223,12.54261554092907
3.3655778894472363,12.538078755214748
3.4660804020100504,12.53405079244995
3.5665829145728645,12.530467202602095
3.6670854271356785,12.52727275074952
3.7675879396984926,12.524419905161803
3.8680904522613067,12.521867605040722
3.9685929648241207,12.519580250742871
4.069095477386934,12.51752687202893
4.169597989949748,12.515680439556629
4.2701005025125625,12.514017292238403
4.3706030150753765,12.512516658789906
4.471105527638191,12.511160256219371
4.571608040201005,12.509931951458473
4.672110552763819,12.508817475042003
4.772613065326633,12.507804177877913
4.873115577889447,12.506880823840806
4.973618090452261,12.506037412268755
5.074120603015075,12.505265025520577
5.174623115577889,12.504555697616174
5.275125628140704,12.50390230068047
5.375628140703518,12.503298446476808
5.476130653266332,12.502738400775055
5.576633165829146,12.502217008674592
5.67713567839196,12.501729629309223
5.777638190954774,12.5012720786132
5.878140703517588,12.5008405790355
5.978643216080402,12.500431715261367
6.0791457286432165,12.5000423951429
6.1796482412060305,12.499669815159317
6.280150753768845,12.499311429826681
6.380653266331659,12.498964924560193
6.481155778894473,12.498628191561997
6.581658291457287,12.498299308366475
6.682160804020101,12.497976518724874
6.782663316582915,12.497658215553532
6.883165829145729,12.49734292570593
6.983668341708543,12.497029296359678
7.084170854271357,12.49671608283587
7.184673366834171,12.496402137690943
7.285175879396985,12.496086400940602
7.385678391959799,12.495767891292427
7.486180904522613,12.495445698278166
7.586683417085427,12.4951189751896
7.687185929648241,12.49478693273286
7.7876884422110555,12.494448833325688
7.88819095477387,12.494103985970696
7.988693467336684,12.493751741644985
8.089195979899497,12.493391489153089
8.18969849246231,12.493022651395922
8.290201005025125,12.492644682013468
8.390703517587939,12.492257062363473
8.491206030150753,12.491859298802348
8.591708542713567,12.491450920238032
8.692211055276381,12.491031475927702
8.792713567839195,12.490600533495993
8.89321608040201,12.490157677151908
8.993718592964823,12.489702506084774
9.094221105527637,12.489234633021638
9.194723618090451,12.488753682930218
9.295226130653266,12.488259291853158
9.39572864321608,12.487751105860701
9.496231155778894,12.48722878011026
9.596733668341708,12.48669197800241
9.697236180904522,12.48614037042391
9.797738693467336,12.48557363506929
9.89824120603015,12.484991455833367
9.998743718592964,12.484393522267746
10.099246231155778,12.483779529095127
10.199748743718592,12.48314917577577
10.300251256281408,12.482502166121046
10.400753768844222,12.481838207949528
10.501256281407036,12.481157012781399
10.60175879396985,12.480458295567528
10.702261306532664,12.479741774449788
10.802763819095478,12.479007170549556
10.903266331658292,12.478254207781653
11.003768844221106,12.47748261269123
11.10427135678392,12.476692114311337
11.204773869346734,12.475882444039117
11.305276381909549,12.475053335528829
11.405778894472363,12.474204524599967
11.506281407035177,12.473335749159025
11.60678391959799,12.47244674913351
11.707286432160805,12.471537266416972
11.807788944723619,12.470607044823934
11.908291457286433,12.469655830053718
12.008793969849247,12.46868336966226
12.109296482412061,12.467689413041041
12.209798994974875,12.466673711402443
12.31030150753769,12.465636017770802
12.410804020100503,12.464576086978596
12.511306532663317,12.463493675667143
12.611809045226131,12.462388542291363
12.712311557788945,12.461260447128124
12.81281407035176,12.46010915228776
12.913316582914574,12.45893442172838
13.013819095477388,12.45773602127265
13.114321608040202,12.456513718626708
13.214824120603016,12.455267283400975
13.31532663316583,12.45399648713255
13.415829145728644,12.45270110330904
13.516331658291458,12.451380907393542
13.616834170854272,12.450035676850629
13.717336683417086,12.448665191173156
13.8178391959799,12.447269231909752
13.918341708542714,12.445847582692824
14.018844221105528,12.444400029266976
14.119346733668342,12.442926359517699
14.219849246231156,12.44142636350027
14.32035175879397,12.439899833468722
14.420854271356784,12.43834656390481
14.521356783919598,12.436766351546916
14.621859296482413,12.435158995418817
14.722361809045227,12.433524296858204
14.82286432160804,12.431862059544985
14.923366834170855,12.430172089529227
15.023869346733669,12.428454195258746
15.124371859296483,12.426708187606303
15.224874371859297,12.424933879896313
15.325376884422111,12.423131087931113
15.425879396984925,12.42129963001668
15.52638190954774,12.419439326987826
15.626884422110553,12.41755000223282
15.727386934673367,12.415631481717412
15.827889447236181,12.413683594008251
15.928391959798995,12.411706170295668
16.02889447236181,12.409699044415815
16.12939698492462,12.40766205287214
16.229899497487438,12.40559503485619
16.33040201005025,12.403497832267723
16.430904522613066,12.40137028973414
16.531407035175878,12.399212254629193
16.631909547738694,12.39702357709099
16.732412060301506,12.39480411003929
16.832914572864322,12.392553709192068
16.933417085427134,12.390272233081356
17.03391959798995,12.387959543068357
17.134422110552762,12.385615503357812
17.234924623115578,12.383239981011657
17.33542713567839,12.380832845961935
17.435929648241206,12.378393971022955
17.53643216080402,12.375923231902751
17.636934673366834,12.373420507213776
17.737437185929647,12.37088567848289
17.837939698492463,12.368318630160585
17.938442211055275,12.365719249629521
18.03894472361809,12.3630874272123
18.139447236180903,12.36042305617854
18.23994974874372,12.35772603275124
18.34045226130653,12.354996256112397
18.440954773869347,12.35223362840794
18.54145728643216,12.349438054751962
18.641959798994975,12.346609443230223
18.742462311557787,12.343747704902993
18.842964824120603,12.34085275380719
18.943467336683415,12.337924506957824
19.04396984924623,12.33496288434879
19.144472361809044,12.331967808952966
19.24497487437186,12.32893920672166
19.34547738693467,12.3258770065834
19.445979899497488,12.32278114044207
19.5464824120603,12.319651543174393
19.646984924623116,12.31648815262681
19.747487437185928,12.313290909611693
19.847989949748744,12.310059757902957
19.948492462311556,12.30679464423107
20.048994974874372,12.303495518277426
20.149497487437184,12.300162332668162
20.25,12.296795042967348
