tau,N_2,N_4,N_6,N_8,N_10,N_16
0.25,13.797209824740381,13.791473026207033,13.790412863743164,13.790041970474837,13.789870328618129,13.789684403805989
0.35050251256281406,10.472839882003644,10.464950095528382,10.463495740073142,10.462987215127557,10.462751928545018,10.462497097507818
0.4510050251256281,8.679148157101334,8.66923766312398,8.667418171560673,8.666782528957677,8.66648852484076,8.666170168813919
0.5515075376884422,7.577139073175963,7.565351334669812,7.563200169167333,7.562449647364883,7.562102683540506,7.561727106935271
0.6520100502512562,6.844860119898605,6.831334814237629,6.828887568749643,6.828035379858823,6.827641705513005,6.827215774356474
0.7525125628140703,6.332219614395053,6.317078211914346,6.314370395976314,6.313429995200954,6.3129960211492335,6.31252681205171
0.8530150753768844,5.9598169465810935,5.943149902288372,5.9402149494068555,5.939199381417262,5.938731385875123,5.938225873440507
0.9535175879396985,5.681745385933092,5.663601642877924,5.660469253250615,5.659390612648911,5.658894499506151,5.658359300477001
1.0540201005025125,5.469665890239116,5.4500450168628,5.446739884598122,5.445608907334862,5.445090024635642,5.444531207052692
1.1545226130653266,5.30518948912107,5.284036452606631,5.2805773764068205,5.279403161504751,5.278866179802772,5.278289136805709
1.2550251256281406,5.175911087749997,5.153113435016005,5.149512774241877,5.148302622472314,5.147751466888374,5.147160848484391
1.3555276381909547,5.073200525624981,5.048587609357188,5.044851025877163,5.04361037461656,5.043048201008457,5.042447893443578
1.4560301507537687,4.990902999632294,4.964246835484103,4.960373253881966,4.9591056846499875,4.958534889041345,4.9579280300393345
1.556532663316583,4.924539019166564,4.895556369469992,4.89153809052003,4.890245386479192,4.88966763724377,4.889056655748169
1.657035175879397,4.870792858885674,4.839148184140331,4.83497109506734,4.833653328725374,4.83306961238078,4.832456282895935
1.7575376884422111,4.8271748846238225,4.792483866656389,4.788127703194546,4.786783338531959,4.786194011828072,4.78557951543
1.8580402010050252,4.79179257399768,4.753625979754341,4.749064606912103,4.747690604298057,4.7470954471940985,4.74648043334308
1.9585427135678393,4.763191662230493,4.721079376133531,4.716281065313262,4.7148729813319905,4.714271247192139,4.713655892355868
2.059045226130653,4.740243777862152,4.693678879554547,4.688606568506295,4.687158645924521,4.686549106700056,4.685933167352536
2.159547738693467,4.722065632375905,4.670508434638755,4.6651199634512,4.6636252089399415,4.663006194210577,4.662389052969095
2.2600502512562812,4.7079600662665255,4.650842055871502,4.645090376966157,4.643540625893787,4.642910055432584,4.642290759954029
2.3605527638190953,4.697372503660779,4.634100147677686,4.627933510890971,4.626319479634431,4.625674889687755,4.6250521845184505
2.4610552763819094,4.689858437746489,4.619816831304043,4.613178946981874,4.611490273884776,4.61082883767852,4.6102011896002715
2.5615577889447234,4.685058919758004,4.607615260217007,4.600445444154937,4.5986707206142095,4.597989263765033,4.597354881363506
2.6620603015075375,4.682681924119353,4.597188802496546,4.589422106828526,4.587548900117002,4.586843911689416,4.586200759940191
2.762562814070352,4.682488073308639,4.588286577665981,4.579853911666767,4.577868781077746,4.57713642102154,4.576482231683985
2.863065326633166,4.684279627800839,4.580702255950081,4.571530500339616,4.5694190081303345,4.568655111785576,4.567987390344983
2.96356783919598,4.687891941987794,4.574265322758547,4.564277440600671,4.5620241590563975,4.561224239344303,4.560540269169404
3.064070351758794,4.693186796803999,4.568834220600092,4.557949367351121,4.555537883118249,4.554697130958615,4.553993975258662
3.1645728643216082,4.7000471705327245,4.564290931138058,4.552424565873083,4.54983748253556,4.548950765953179,4.548225268035041
3.2650753768844223,4.70837311872405,4.56053666941063,4.5476006687651696,4.544819608474175,4.543881470782692,4.543130253029188
3.3655778894472363,4.71807851440439,4.557488442383298,4.543391218310028,4.5403968231274625,4.539401480511799,4.538620942430362
3.4660804020100504,4.7290884591117,4.5550762832644995,4.539722905324728,4.536494838808896,4.5354361775678615,4.534622493194837
3.5665829145728645,4.741337219549355,4.553241017180285,4.536533339767689,4.53305028921494,4.531921862873955,4.531070977764527
3.6670854271356785,4.754766577903057,4.551932446953584,4.5337692415802975,4.53000892123842,4.528803947698191,4.5279115756846915
3.7675879396984926,4.769324509021773,4.551107872781273,4.531384965339078,4.527324120825525,4.526035479675271,4.525097099536727
3.8680904522613067,4.78496411682108,4.5507308786459,4.529341291382328,4.524955705471337,4.523575935564053,4.5225867877166435
3.9685929648241207,4.801642776945377,4.5507703328622835,4.527604430677599,4.522868930563108,4.521390227924649,4.520345311215215
4.069095477386934,4.819321444036276,4.5511995613580645,4.526145201928787,4.521033668023373,4.519447884146074,4.518341952808365
4.169597989949748,4.837964090717395,4.551995660944012,4.524938348107203,4.519423724399323,4.517722364953789,4.51654992576892
4.2701005025125625,4.8575372522290445,4.553138926555264,4.523961966340428,4.518016272302063,4.516190496287029,4.514945805975072
4.3706030150753765,4.878009655984198,4.554612371694427,4.523197030363011,4.516791374375794,4.514831993715167,4.513509056573302
4.471105527638191,4.899351919511428,4.556401325424568,4.5226269888667465,4.515731583116261,4.513629062703918,4.512221628497662
4.571608040201005,4.921536303559626,4.5584930925030385,4.522237426345002,4.514821603118848,4.512566061305368,4.511067623412616
4.672110552763819,4.944536509759971,4.560876665812626,4.522015775602097,4.51404800491705,4.511629214427684,4.510033008230315
4.772613065326633,4.968327514323268,4.563542482284587,4.521951073145464,4.513398981621877,4.510806370891596,4.509105372405844
4.873115577889447,4.992885430911182,4.566482215133738,4.522033750310712,4.512864141207555,4.510086796116652,4.508273720851072
4.973618090452261,5.018187397147531,4.56968859652761,4.522255454276513,4.512434328597824,4.50946099458997,4.507528296618441
5.074120603015075,5.044211480300182,4.573155265858241,4.522608894176347,4.512101472758795,4.508920557322733,4.506860428559196
5.174623115577889,5.070936598519416,4.576876639629741,4.5230877083610945,4.511858454852611,4.508458030348264,4.506262400009878
5.275125628140704,5.098342454707526,4.580847799658939,4.523686349551884,4.511698994192563,4.508066801002559,4.505727335248211
5.375628140703518,5.126409480650199,4.585064396842646,4.524399985179334,4.511617549297786,4.507740999285756,4.505249101017584
5.476130653266332,5.155118789489435,4.589522568198981,4.525224410659052,4.511609231799957,4.507475412057631,4.50482222087403
5.576633165829146,5.184452134981327,4.594218865262023,4.526155973724201,4.511669731325774,4.507265408191669,4.504441800481297
5.67713567839196,5.214391876276612,4.599150192214613,4.52719150824037,4.511795249783671,4.50710687311699,4.504103462284374
5.777638190954774,5.244920947200878,4.604313752396277,4.528328276178507,4.511982443733931,4.506996151428218,4.503803288242648
5.878140703517588,5.276022829205224,4.609707002031949,4.529563916628576,4.512228373728332,4.506929996450301,4.50353776951083
5.978643216080402,5.307681527315721,4.615327610200632,4.530896400908043,4.5125304596769436,4.50690552581677,4.503303762127172
6.0791457286432165,5.339881548538004,4.621173424207751,4.532323992961767,4.512886441442108,4.506920182262294,4.50309844791082
6.1796482412060305,5.372607882277249,4.6272424396459515,4.5338452143686725,4.513294343978422,4.506971698949119,4.50291929988882
6.280150753768845,5.405845982418325,4.633532774530755,4.535458813369981,4.513752446436791,4.507058068746172,4.502764051672341
6.380653266331659,5.439581750779461,4.640042646983109,4.537163737417143,4.514259254733971,4.507177516962862,4.502630670284916
6.481155778894473,5.473801521708485,4.646770356003259,4.538959108807858,4.51481347715904,4.507328477109608,4.502517332015323
6.581658291457287,5.508492047635805,4.65371426494183,4.540844203037763,4.515414002647441,4.5075095693162295,4.502422400926782
6.682160804020101,5.543640485434979,4.660872787326306,4.542818429545691,4.516059881403306,4.507719581089341,4.502344409704086
6.782663316582915,5.579234383471175,4.668244374745711,4.544881314572925,4.5167503075933055,4.507957450132369,4.50228204256259
6.883165829145729,5.615261669241902,4.6758275065346515,4.547032485893334,4.517484603871519,4.5082222489880195,4.502234119979202
6.983668341708543,5.651710637533506,4.683620681030635,4.549271659202266,4.5182622075257495,4.508513171293873,4.502199585036247
7.084170854271357,5.688569939032567,4.691622408207067,4.551598625978742,4.51908265806226,4.508829519468333,4.5021774911955665
7.184673366834171,5.72582856934363,4.699831203508698,4.554013242658372,4.519945586068671,4.509170693666843,4.502166991342851
7.285175879396985,5.7634758583747745,4.708245582737625,4.556515420974139,4.520850703214437,4.509536181867969,4.502167327961835
7.385678391959799,5.80150146006034,4.716864057856352,4.5591051193392875,4.52179779326526,4.50992555096581,4.502177824314792
7.486180904522613,5.83989534239647,4.7256851335905194,4.561782335161274,4.522786704002489,4.510338438759945,4.502197876520518
7.586683417085427,5.878647777770053,4.734707304727964,4.564547097988665,4.523817339951385,4.510774546746859,4.502226946433614
7.687185929648241,5.917749333565533,4.74392905402301,4.5673994634039925,4.524889655833176,4.511233633627878,4.502264555240031
7.7876884422110555,5.957190863037119,4.753348850625735,4.570339507585365,4.526003650665583,4.511715509458362,4.502310277693485
7.88819095477387,5.9969634964362095,4.762965148965397,4.573367322468215,4.527159362444943,4.512220030371395,4.502363736925822
7.988693467336684,6.03705863238568,4.772776388025515,4.576483011446035,4.528356863350552,4.512747093816614,4.5024245997718575
8.089195979899497,6.077467929493978,4.782780990955502,4.579686685555561,4.529596255418329,4.513296634261408,4.502492572555723
8.18969849246231,6.118183298203071,4.792977364970199,4.58297846009767,4.530877666636682,4.513868619307432,4.50256739729151
8.290201005025125,6.159196892864883,4.8033639014943885,4.586358451650405,4.532201247422556,4.514463046180489,4.50264884825611
8.390703517587939,6.20050110404153,4.813938976514497,4.589826775435064,4.533567167440059,4.515079938556288,4.502736728896591
8.491206030150753,6.242088551024886,4.824700951104108,4.593383543000301,4.534975612728103,4.5157193436886125,4.502830869038467
8.591708542713567,6.28395207457136,4.835648172093986,4.597028860192782,4.536426783106957,4.516381329809891,4.502931122364713
8.692211055276381,6.3260847298478,4.846778972860781,4.60076282538609,4.537920889836737,4.517065983777349,4.503037364138553
8.792713567839195,6.368479779584618,4.858091674211768,4.6045855279424055,4.539458153503676,4.517773408940652,4.503149489145786
8.89321608040201,6.41113068743214,4.869584585345747,4.608497046884019,4.541038802112402,4.518503723209483,4.50326740983496
8.993718592964823,6.454031111516273,4.881256004872711,4.612497449753947,4.5426630693647345,4.519257057301625,4.503391054635848
9.094221105527637,6.497174898189492,4.893104221877114,4.616586791647003,4.544331193107412,4.520033553154186,4.503520366438744
9.194723618090451,6.540556075973107,4.9051275170114925,4.620765114394402,4.546043413932947,4.520833362482275,4.503655301218778
9.295226130653266,6.584168849686772,4.917324163608973,4.625032445886646,4.547799973919331,4.521656645471063,4.5037958267911185
9.39572864321608,6.628007594761033,4.929692428804726,4.62938879952088,4.549601115495797,4.522503569588561,4.5039419216842695
9.496231155778894,6.672066851728827,4.9422305746577955,4.633834173760193,4.551447080422979,4.523374308507682,4.504093574120003
9.596733668341708,6.7163413208916625,4.954936859265975,4.638368551793541,4.553338108877041,4.524269041127342,4.504250781089573
9.697236180904522,6.760825857156227,4.967809537867449,4.642991901286016,4.555274438628303,4.525187950683283,4.504413547516884
9.797738693467336,6.805515465037203,4.980846863923926,4.647704174210123,4.557256304305801,4.5261312239403075,4.504581885500227
9.89824120603015,6.850405293821955,4.994047090180777,4.652505306749636,4.559283936740044,4.52709905045835,4.504755813624993
9.998743718592964,6.895490632892847,5.007408469700504,4.657395219268316,4.56135756237696,4.528091621925593,4.5049353563405425
10.099246231155778,6.940766907202877,5.020929256866492,4.662373816336551,4.563477402756676,4.529109131552483,4.505120543395058
10.199748743718592,6.986229672900423,5.034607708354581,4.667440986809558,4.565643674051359,4.530151773521082,4.50531140932283
10.300251256281408,7.031874613098823,5.048442084070535,4.672596603951404,4.567856586656919,4.531219742484756,4.505507992978935
10.400753768844222,7.077697533786622,5.062430648051917,4.6778405255995965,4.570116344833792,4.53231323311364,4.505710337116808
10.501256281407036,7.123694359874354,5.076571669333278,4.683172594365508,4.572423146392527,4.5334324396817935,4.505918488004565
10.60175879396985,7.169861131373728,5.090863422773912,4.688592637866291,4.574777182420221,4.53457755569233,4.506132495076447
10.702261306532664,7.216193999705228,5.105304189847759,4.694100468984368,4.577178637044272,4.535748773537159,4.5063524106159765
10.802763819095478,7.262689224130109,5.11989225939525,4.699695886150912,4.579627687230158,4.536946284188287,4.506578289467871
10.903266331658292,7.3093431683029415,5.134625928337159,4.705378673650073,4.582124502610326,4.53817027691794,4.506810188775951
11.003768844221106,7.3561522969408335,5.1495035023507025,4.711148601941023,4.58466924534147,4.53942093904499,4.507048167744591
11.10427135678392,7.403113172605605,5.164523296508299,4.717005427995097,4.587262069987725,4.54069845570543,4.507292287421494
11.204773869346734,7.450222452595264,5.179683635879532,4.722948895645637,4.589903123427558,4.542003009644834,4.507542610499776
11.305276381909549,7.497476885941154,5.194982856097004,4.728978735948319,4.5925925447822795,4.5433347810309455,4.5077992011375345
11.405778894472363,7.544873310507335,5.21041930388684,4.735094667549956,4.595330465364308,4.54469394728469,4.508062124793257
11.506281407035177,7.5924086501887595,5.225991337564698,4.74129639706397,4.598117008643455,4.5460806829280855,4.508331448075612
11.60678391959799,7.640079912204895,5.241697327498216,4.747583619450896,4.600952290229684,4.547495159447618,4.508607238606226
11.707286432160805,7.687884184485645,5.257535656536863,4.753956018402422,4.603836417870865,4.548937545171875,4.508889564894284
11.807788944723619,7.73581863314633,5.273504720410206,4.760413266727635,4.606769491464225,4.5504080051622,4.509178496221821
11.908291457286433,7.7838805000487525,5.289602928095655,4.766955026740267,4.609751603080283,4.5519067011153584,4.509474102538724
12.008793969849247,7.832067100445337,5.3058287021567345,4.773580950645834,4.612782836998135,4.553433791277266,4.5097764543665395
12.109296482412061,7.880375820703495,5.322180479052977,4.78029068092771,4.615863269751084,4.554989430366858,4.51008562271028
12.209798994974875,7.928804116107414,5.3386567094225255,4.78708385073125,4.618992970181654,4.556573769509334,4.5104016789774874
12.31030150753769,7.977349508734574,5.355255858338517,4.793960084245173,4.622171999505138,4.558186956178032,4.510724694903889
12.410804020100503,8.026009585404388,5.371976405540348,4.800918997079511,4.625400411380873,4.559829134144284,4.511054742485044
12.511306532663317,8.074781995696409,5.388816845640887,4.807960196639499,4.628678251990492,4.561500443434603,4.511391893913441
12.611809045226131,8.12366445003568,5.405775688310689,4.815083282494845,4.63200556012251,4.56320102029469,4.511736221520536
12.712311557788945,8.172654717842837,5.422851458440252,4.822287846743907,4.635382367262562,4.564930997159708,4.512087797723315
12.81281407035176,8.2217506257467,5.440042696281357,4.829573474372342,4.638808697688784,4.566690502630387,4.512446694974938
12.913316582914574,8.27095005585711,5.457347957568459,4.836939743605849,4.642284568571728,4.568479661454491,4.512812985719129
13.013819095477388,8.320250944095886,5.4747658136211275,4.8443862262566855,4.645809990078377,4.570298594513299,4.513186742347979
13.114321608040202,8.369651278583856,5.492294851428485,4.851912488063684,4.649384965479773,4.572147418812682,4.513568037162833
13.214824120603016,8.41914909808195,5.509933673716561,4.859518089025529,4.653009491261834,4.574026247478474,4.513956942338032
13.31532663316583,8.46874249048441,5.527680898999455,4.867202583727084,4.656683557238981,4.575935189755836,4.514353529887228
13.415829145728644,8.518429591362311,5.545535161615182,4.874965521658629,4.660407146670214,4.577874351012293,4.514757871632074
13.516331658291458,8.568208582555586,5.563495111747042,4.882806447527849,4.664180236377278,4.57984383274419,4.515170039173066
13.616834170854272,8.618077690811777,5.5815594154313235,4.890724901564495,4.668002796864636,4.5818437325863695,4.51559010386238
13.717336683417086,8.66803518646993,5.599726754552095,4.898720419817616,4.6718747924409465,4.583874144324758,4.5160181367785075
13.8178391959799,8.718079382187977,5.617995826823897,4.906792534445336,4.675796181341779,4.585935157911731,4.516454208702579
13.918341708542714,8.768208631712044,5.6363653457629805,4.914940773997116,4.6797669158533255,4.588026859484025,4.516898390096188
14.018844221105528,8.818421328686261,5.654834040647867,4.923164663688505,4.683786942436865,4.590149331383013,4.517350751080644
14.119346733668342,8.868715905501542,5.673400656469821,4.931463725668398,4.68785620185379,4.592302652177193,4.517811361417515
14.219849246231156,8.919090832182048,5.692063953873931,4.939837479278796,4.691974629290979,4.594486896686711,4.51828029049035
14.32035175879397,8.969544615307916,5.710822709091396,4.948285441307111,4.696142154486338,4.596702136009802,4.518757607287525
14.420854271356784,9.020075796973016,5.729675713863574,4.956807126231099,4.700358701854347,4.598948437550975,4.519243380386083
14.521356783919598,9.070682953776487,5.748621775358405,4.9654020464564255,4.704624190611449,4.601225865050846,4.51973767793654
14.621859296482413,9.121364695846847,5.767659716079693,4.974069712546995,4.70893853490114,4.603534478617489,4.520240567648542
14.722361809045227,9.172119665897545,5.786788373769791,4.982809633448075,4.71330164391862,4.605874334759173,4.5207521167773494
14.82286432160804,9.22294653831283,5.806006601306164,4.991621316702343,4.717713422034894,4.608245486418423,4.521272392111069
14.923366834170855,9.273844018262881,5.825313266592293,5.00050426865893,4.722173768920194,4.610647983007258,4.521801459958589
15.023869346733669,9.324810840847185,5.844707252443359,5.0094579946755715,4.7266825796666225,4.613081870443549,4.522339386138178
15.124371859296483,9.37584577026513,5.864187456467138,5.018481999313984,4.731239744909933,4.615547191188389,4.52288623596668
15.224874371859297,9.426947599012921,5.883752790940496,5.02757578652856,4.73584515095033,4.618043984284406,4.523442074249309
15.325376884422111,9.478115147105843,5.903402182681859,5.036738859848532,4.740498679872238,4.620572285394929,4.524006965269958
15.425879396984925,9.529347261325027,5.923134572920044,5.045970722553687,4.745200209662936,4.623132126843938,4.524580972782037
15.52638190954774,9.580642814487863,5.942948917159752,5.055270877843797,4.749949614330019,4.6257235376567305,4.525164159999777
15.626884422110553,9.632000704741214,5.962844185044086,5.064638829001864,4.7547467640175896,4.628346543601246,4.525756589589986
15.727386934673367,9.683419854876677,5.98281936021437,5.074074079551325,4.759591525121156,4.631001167229966,4.526358323664234
15.827889447236181,9.734899211667098,6.002873440167586,5.083576133407334,4.764483760401158,4.633687427922349,4.526969423771449
15.928391959798995,9.786437745223658,6.0230054361116725,5.093144495022274,4.769423329095091,4.636405341927735,4.527589950890888
16.02889447236181,9.838034448372744,6.0432143728189756,5.102778669525612,4.77441008702818,4.639154922408674,4.528219965425473
