tau,N_4
0.25,26.12522771920456
0.35050251256281406,20.816510330647812
0.4510050251256281,18.040083128365374
0.5515075376884422,16.395291860453867
0.6520100502512562,15.344694584905861
0.7525125628140703,14.6384877793243
0.8530150753768844,14.145549549248738
0.9535175879396985,13.79111132172327
1.0540201005025125,13.529935367732259
1.1545226130653266,13.333411794286983
1.2550251256281406,13.182811071034001
1.3555276381909547,13.06552309519852
1.4560301507537687,12.972854620988079
1.556532663316583,12.89868804326759
1.657035175879397,12.838638620101708
1.7575376884422111,12.78951095733451
1.8580402010050252,12.748940657110527
1.9585427135678393,12.715153441349614
2.059045226130653,12.686800416745903
2.159547738693467,12.662843622716803
2.2600502512562812,12.642475346059808
2.3605527638190953,12.625060460035822
2.4610552763819094,12.610094686760684
2.5615577889447234,12.597174018822402
2.6620603015075375,12.585972059856996
2.762562814070352,12.57622305173628
2.863065326633166,12.567709031606656
2.96356783919598,12.560250020511976
3.064070351758794,12.553696460179859
3.1645728643216082,12.547923333196168
3.2650753768844223,12.542825555273227
3.3655778894472363,12.53831433717596
3.4660804020100504,12.534314291852136
3.5665829145728645,12.53076111871444
3.6670854271356785,12.52759973819285
3.7675879396984926,12.524782779996249
3.8680904522613067,12.522269351041787
3.9685929648241207,12.520024025872742
4.069095477386934,12.518016015109385
4.169597989949748,12.51621847714967
4.2701005025125625,12.514607945740336
4.3706030150753765,12.513163851744286
4.471105527638191,12.51186812185384
4.571608040201005,12.510704840450245
4.672110552763819,12.509659963516217
4.772613065326633,12.50872107564281
4.873115577889447,12.50787718286312
4.973618090452261,12.507118535392225
5.074120603015075,12.506436475429956
5.174623115577889,12.505823306048544
5.275125628140704,12.505272177884933
5.375628140703518,12.504776990923062
5.476130653266332,12.504332309110522
5.576633165829146,12.503933285929069
5.67713567839196,12.503575599345188
5.777638190954774,12.503255394819096
5.878140703517588,12.502969235258389
5.978643216080402,12.502714056974588
6.0791457286432165,12.502487130843367
6.1796482412060305,12.502286027988207
6.280150753768845,12.502108589406438
6.380653266331659,12.50195289903978
6.481155778894473,12.501817259861514
6.581658291457287,12.50170017261136
6.682160804020101,12.501600316859088
6.782663316582915,12.501516534120272
6.883165829145729,12.501447812783645
6.983668341708543,12.501393274640478
7.084170854271357,12.501352162832568
7.184673366834171,12.501323831058443
7.285175879396985,12.501307733896684
7.385678391959799,12.501303418122339
7.486180904522613,12.501310514907027
7.586683417085427,12.50132873280608
7.687185929648241,12.501357851447205
7.7876884422110555,12.501397715844817
7.88819095477387,12.501448231272793
7.988693467336684,12.501509358635733
8.089195979899497,12.501581110285585
8.18969849246231,12.501663546236063
8.290201005025125,12.501756770732667
8.390703517587939,12.501860929140395
8.491206030150753,12.501976205115525
8.591708542713567,12.502102818031194
8.692211055276381,12.50224102062988
8.792713567839195,12.50239109687858
8.89321608040201,12.502553360005118
8.993718592964823,12.502728150696264
9.094221105527637,12.502915835440284
9.194723618090451,12.503116804998502
9.295226130653266,12.503331472991956
9.39572864321608,12.503560274590786
9.496231155778894,12.503803665295179
9.596733668341708,12.504062119798048
9.697236180904522,12.504336130920505
9.797738693467336,12.504626208612255
9.89824120603015,12.504932879009836
9.998743718592964,12.505256683546444
10.099246231155778,12.505598178107693
10.199748743718592,12.505957932228432
10.300251256281408,12.506336528326104
10.400753768844222,12.506734560966805
10.501256281407036,12.507152636160573
10.60175879396985,12.507591370682865
10.702261306532664,12.508051391419528
10.802763819095478,12.508533334732917
10.903266331658292,12.509037845847125
11.003768844221106,12.509565578250504
11.10427135678392,12.510117193113926
11.204773869346734,12.510693358723465
11.305276381909549,12.511294749926313
11.405778894472363,12.51192204758896
11.506281407035177,12.512575938066814
11.60678391959799,12.513257112684501
11.707286432160805,12.513966267226369
11.807788944723619,12.514704101436568
11.908291457286433,12.515471318528455
12.008793969849247,12.516268624702928
12.109296482412061,12.517096728675467
12.209798994974875,12.517956341211736
12.31030150753769,12.518848174671566
12.410804020100503,12.5197729425613
12.511306532663317,12.520731359094395
12.611809045226131,12.521724138760316
12.712311557788945,12.522751995901732
12.81281407035176,12.523815644300022
12.913316582914574,12.524915796769186
13.013819095477388,12.526053164758228
13.114321608040202,12.527228457962037
13.214824120603016,12.52844238394094
13.31532663316583,12.529695647748948
13.415829145728644,12.530988951570817
13.516331658291458,12.532322994368025
13.616834170854272,12.533698471533729
13.717336683417086,12.535116074556825
13.8178391959799,12.536576490695158
13.918341708542714,12.538080402657991
14.018844221105528,12.539628488297778
14.119346733668342,12.541221420311313
14.219849246231156,12.542859865950296
14.32035175879397,12.544544486741392
14.420854271356784,12.546275938215773
14.521356783919598,12.548054869648183
14.621859296482413,12.549881923805552
14.722361809045227,12.551757736705154
14.82286432160804,12.553682937382284
14.923366834170855,12.555658147667467
15.023869346733669,12.557683981973131
15.124371859296483,12.559761047089749
15.224874371859297,12.561889941991364
15.325376884422111,12.564071257650465
15.425879396984925,12.566305576862119
15.52638190954774,12.56859347407732
15.626884422110553,12.570935515245413
15.727386934673367,12.573332257665562
15.827889447236181,12.575784249847114
15.928391959798995,12.578292031378764
16.02889447236181,12.580856132806396
16.12939698492462,12.583477075519484
16.229899497487438,12.586155371645942
16.33040201005025,12.588891523955217
16.430904522613066,12.591686025769564
16.531407035175878,12.594539360883298
16.631909547738694,12.59745200348991
16.732412060301506,12.600424418116846
16.832914572864322,12.603457059567827
16.933417085427134,12.60655037287253
17.03391959798995,12.609704793243445
17.134422110552762,12.61292074603978
17.234924623115578,12.61619864673818
17.33542713567839,12.619538900910156
17.435929648241206,12.622941904205973
17.53643216080402,12.62640804234489
17.636934673366834,12.629937691111508
17.737437185929647,12.633531216358081
17.837939698492463,12.637188974012632
17.938442211055275,12.640911310092617
18.03894472361809,12.64469856072404
18.139447236180903,12.648551052165796
18.23994974874372,12.652469100839063
18.34045226130653,12.65645301336156
18.440954773869347,12.660503086586536
18.54145728643216,12.664619607646255
18.641959798994975,12.668802853999836
18.742462311557787,12.673053093485263
18.842964824120603,12.677370584375435
18.943467336683415,12.681755575437984
19.04396984924623,12.686208305998834
19.144472361809044,12.690729006009214
19.24497487437186,12.695317896116036
19.34547738693467,12.699975187735454
19.445979899497488,12.704701083129454
19.5464824120603,12.709495775485292
19.646984924623116,12.714359448997701
19.747487437185928,12.719292278953619
19.847989949748744,12.724294431819391
19.948492462311556,12.72936606533023
20.048994974874372,12.734507328581842
20.149497487437184,12.739718362124059
20.25,12.744999298056351
