tau,N_2,N_4,N_8,N_16
0.25,182.47140334434627,182.47144415339787,182.4714467067159,182.47144686634132
0.35050251256281406,143.5904200049416,143.59054780994055,143.5905558145321,143.59055631508173
0.4510050251256281,123.98383470308785,123.9841447410206,123.98416418524477,123.98416540155662
0.5515075376884422,112.67187192385941,112.67251393007992,112.67255426118652,112.67255678510996
0.6520100502512562,105.55919252400533,105.56038390330542,105.56045889555385,105.56046359092046
0.7525125628140703,100.80689843467945,100.80893705147132,100.80906567113276,100.8090737288685
0.8530150753768844,97.48315370408301,97.48643013869038,97.48663740004882,97.48665039312515
0.9535175879396985,95.07329034714364,95.07829952044004,95.07861733007438,95.07863726819349
1.0540201005025125,93.27397832639296,93.28133042060428,93.28179840851713,93.28182779250439
1.1545226130653266,91.89708987781874,91.90752049261488,91.90818682913603,91.90822870503447
1.2550251256281406,90.82101792373997,90.83539741175107,90.83631960908598,90.83637762194155
1.3555276381909547,89.96439780542842,89.98373973519199,89.98498543232998,89.98506387964538
1.4560301507537687,89.27116864497648,89.29663734490627,89.29828507453558,89.29838895936358
1.556532663316583,88.70170994607174,88.73462709112214,88.73676702727442,88.7369021109242
1.657035175879397,88.22738997318777,88.26924018589025,88.27197487122965,88.27214772556948
1.7575376884422111,87.8271073956741,87.87954284405023,87.88298789596949,87.88320595532197
1.8580402010050252,87.48503727527809,87.54988126075584,87.55416605568675,87.55443766832578
1.9585427135678393,87.1891261715276,87.26837570968043,87.27364404522746,87.27397852449634
2.059045226130653,86.93006526082087,87.02589266610218,87.03230340074154,87.03271107581806
2.159547738693467,86.70057552770533,86.81532902020282,86.82305669034986,86.82354895668463
2.2600502512562812,86.4949009725523,86.63110433015196,86.64033974438469,86.6409291138367
2.3605527638190953,86.30844316122572,86.46879444459385,86.47974525474044,86.48044540542558
2.4610552763819094,86.13749355027726,86.3248629309773,86.33775417964499,86.33858000550268
2.5615577889447234,85.97903460511202,86.19646132927156,86.2115359732309,86.21250363330083
2.6620603015075375,85.83059010715037,86.0812786287177,86.09879803738184,86.09992500476895
2.762562814070352,85.69011118080638,85.9774264999113,85.99767092798626,85.99897603847818
2.863065326633166,85.55588864656296,85.88335089010513,85.90661992335382,85.90812342364339
2.96356783919598,85.42648505207202,85.79776333560243,85.82437630857848,85.826099904035
3.064070351758794,85.30068160683076,85.71958721916887,85.74988360374553,85.75185050567194
3.1645728643216082,85.1774365399831,85.64791549481569,85.68225525836398,85.68449023067578
3.2650753768844223,85.05585230504637,85.5819773068833,85.62074123903909,85.62327064430161
3.3655778894472363,84.93514969502817,85.52111157016853,85.56470157726203,85.56755342202742
3.4660804020100504,84.81464739001507,85.46474603638897,85.51358540277946,85.5167893821714
3.5665829145728645,84.69374579318148,85.41238070585396,85.46691432160452,85.47050186310697
3.6670854271356785,84.57191425845852,85.36357469000608,85.42426924453368,85.42827355094887
3.7675879396984926,84.4486809997691,85.31793581650955,85.38527995804154,85.38973604959128
3.8680904522613067,84.32362511543093,85.27511241149233,85.34961687234279,85.35456162789562
3.9685929648241207,84.19637027403687,85.23478680544486,85.31698449328687,85.32245669069995
4.069095477386934,84.06657969798206,85.19667019833271,85.28711625377983,85.29315660935085
4.169597989949748,83.93395215336885,85.16049859128398,85.25977041220668,85.26642161923488
4.2701005025125625,83.79821871410506,85.1260295506208,85.23472678371296,85.2420335501712
4.3706030150753765,83.659140116314,85.09303961773419,85.21178411791088,85.21979320323246
4.471105527638191,83.51650455866174,85.06132221732258,85.1907579755805,85.19951822656468
4.571608040201005,83.37012583637096,85.0306859483257,85.1714789887316,85.18104137457189
4.672110552763819,83.21984172272727,85.00095316766793,85.15379141416551,85.16420906060381
4.772613065326633,83.0655125327777,84.97195879766068,85.1375519114033,85.1488801340115
4.873115577889447,82.9070198205162,84.94354930442628,85.1226284923552,85.13492482894524
4.973618090452261,82.74426517387701,84.91558180771737,85.10889960311576,85.12222384527662
5.074120603015075,82.57716908194652,84.8879232926311,85.09625330839361,85.11066753215363
5.174623115577889,82.40566985650533,84.86044990150101,85.08458655686808,85.10015515247835
5.275125628140704,82.22972259579691,84.83304629014386,85.07380451166067,85.09059421249563
5.375628140703518,82.04929818268369,84.8056050370403,85.06381993451231,85.08189984508141
5.476130653266332,81.8643823124275,84.77802609726085,85.05455261549031,85.07399423855482
5.576633165829146,81.6749745474957,84.75021629527848,85.04592884238069,85.0668061051691
5.67713567839196,81.4810873982631,84.72208885245857,85.03788090557123,85.060270185086
5.777638190954774,81.28274542943586,84.69356294615478,85.03034663536876,85.05432678277724
5.878140703517588,81.07998439259981,84.66456329810495,85.02326896946016,85.04892133356269
5.978643216080402,80.87285038560474,84.63501979031942,85.01659554872471,85.04400399849257
6.0791457286432165,80.66139903961678,84.60486710696541,85.0102783399152,85.03952928609165
6.1796482412060305,80.44569473466574,84.57404440093507,85.00427328390947,85.03545569966708
6.280150753768845,80.22580984442776,84.54249498388555,84.99853996833296,85.03174540898135
6.380653266331659,80.00182401085078,84.5101660385905,84.99304132340295,85.02836394514036
6.481155778894473,79.77382344907008,84.47700835246218,84.98774333986312,85.02527991756718
6.581658291457287,79.54190028289432,84.44297607111126,84.98261480788399,85.02246475193597
6.682160804020101,79.3061519109752,84.408026470814,84.97762707580486,85.01989244794352
6.782663316582915,79.06668040361726,84.372119748761,84.9727538275969,85.01753935579755
6.883165829145729,78.82359193003671,84.33521882997321,84.96797087793495,85.01538397031052
6.983668341708543,78.57699621574926,84.29728918978608,84.9632559837812,85.01340674150214
7.084170854271357,78.327006029648,84.25829869082906,84.95858867140626,85.01158990063735
7.184673366834171,78.07373670023371,84.2182174334574,84.95395007780287,85.00991730065441
7.285175879396985,77.81730566037035,84.17701761863077,84.94932280548238,85.00837426997496
7.385678391959799,77.5578320198671,84.13467342227563,84.94469078968461,85.00694747872642
7.486180904522613,77.29543616512544,84.09116088021284,84.94003917707599,85.00562481645242
7.586683417085427,77.03023938504009,84.0464577827816,84.93535421505675,85.0043952804325
7.687185929648241,76.76236352230283,84.00054357833969,84.93062315084751,85.00324887378203
7.7876884422110555,76.4919306492259,83.95339928487081,84.92583413957342,85.00217651255056
7.88819095477387,76.21906276718033,83.90500740898082,84.9209761606138,85.00116994108794
7.988693467336684,75.94388152872656,83.85535187161341,84.91603894153361,85.00022165499404
8.089195979899497,75.66650798150627,83.80441793986513,84.91101288895996,84.99932483101637
8.18969849246231,75.38706233295983,83.7521921643261,84.90588902581283,84.9984732633051
8.290201005025125,75.10566373493448,83.6986623214177,84.90065893434296,84.99766130547867
8.390703517587939,74.82243008725332,83.64381736024123,84.89531470447115,84.99688381799515
8.491206030150753,74.53747785932464,83.58764735349233,84.88984888696338,84.99613612036367
8.591708542713567,74.25092192888253,83.53014345203331,84.8842544510131,84.99541394776809
8.692211055276381,73.96287543696599,83.47129784275235,84.87852474583636,84.99471341170897
8.792713567839195,73.6734496582603,83.41110370937047,84.87265346591943,84.99403096430345
8.89321608040201,73.38275388594515,83.34955519588978,84.86663461958717,84.99336336591254
8.993718592964823,73.09089533021532,83.28664737240364,84.86046250059047,84.9927076557937
9.094221105527637,72.79797902966294,83.22237620301739,84.8541316624353,84.99206112550203
9.194723618090451,72.50410777473529,83.15673851565165,84.84763689520155,84.99142129478889
9.295226130653266,72.20938204250719,83.08973197352371,84.84097320462115,84.9907858897671
9.39572864321608,71.91389994203382,83.0213550481224,84.8341357932055,84.99015282313383
9.496231155778894,71.61775716957672,82.9516069935115,84.82712004323143,84.98952017626027
9.596733668341708,71.321046973023,82.88048782181357,84.8199215014113,84.98888618297437
9.697236180904522,71.02386012484598,82.80799827974205,84.81253586508946,84.98824921487875
9.797738693467336,70.72628490298256,82.73413982606421,84.80495896982103,84.98760776806076
9.89824120603015,70.428407079031,82.65891460989013,84.79718677820223,84.98696045106338
9.998743718592964,70.13030991320021,82.58232544969518,84.78921536983393,84.9863059739997
10.099246231155778,69.83207415546853,82.504375812994,84.78104093231015,84.98564313870257
10.199748743718592,69.5337780524379,82.42506979659412,84.77265975313414,84.98497082981235
10.300251256281408,69.23549735939446,82.34441210736576,84.76406821247303,84.98428800671444
10.400753768844222,68.93730535711383,82.26240804347255,84.75526277667079,84.9835936962456
10.501256281407036,68.63927287297366,82.17906347601529,84.74623999244609,84.98288698609771
10.60175879396985,68.3414683059612,82.09438483104667,84.73699648170953,84.98216701885126
10.702261306532664,68.04395765518744,82.00837907192162,84.7275289369395,84.98143298658043
10.802763819095478,67.74680455154245,81.9210536819522,84.71783411706306,84.98068412597475
10.903266331658292,67.45007029214908,81.83241664734118,84.70790884379181,84.97991971392833
11.003768844221106,67.15381387729357,81.74247644037249,84.69774999836889,84.97913906355272
11.10427135678392,66.85809204953266,81.65124200284015,84.68735451868606,84.97834152057276
11.204773869346734,66.56295933469632,81.55872272970096,84.67671939673455,84.9775264600689
11.305276381909549,66.26846808452481,81.46492845293868,84.66584167635654,84.97669328353366
11.405778894472363,65.97466852069651,81.36986942563021,84.65471845126706,84.9758414162115
11.506281407035177,65.68160878002057,81.27355630620676,84.64334686331922,84.97497030469589
11.60678391959799,65.3893349605853,81.17600014290419,84.63172410098822,84.97407941475839
11.707286432160805,65.09789116866847,81.07721235839936,84.61984739805162,84.97316822938838
11.807788944723619,64.8073195662308,80.97720473463,84.60771403244603,84.97223624702251
11.908291457286433,64.51766041882863,80.8759893977973,84.59532132528163,84.97128297994666
12.008793969849247,64.22895214379407,80.77357880355125,84.58266663999821,84.97030795285322
12.109296482412061,63.94123135854496,80.66998572236015,84.56974738164759,84.96931070153933
12.209798994974875,63.65453292889746,80.56522322506554,84.5565609962891,84.96829077173254
12.31030150753769,63.368890017266644,80.4593046686253,84.54310497048559,84.9672477180316
12.410804020100503,63.08433413065014,80.35224368204796,84.52937683088919,84.9661811029515
12.511306532663317,62.80089516830015,80.24405415252113,84.51537414390654,84.96509049606283
12.611809045226131,62.518601468998405,80.13475021173788,84.5010945154345,84.96397547321638
12.712311557788945,62.23747985785732,80.0243462224247,84.48653559065822,84.96283561584491
12.81281407035176,61.957555692578765,79.91285676507532,84.47169505390396,84.96167051033467
12.913316582914574,61.678852909109104,79.8002966248937,84.45657062854013,84.96047974746008
13.013819095477388,61.40139406663703,79.68668077895073,84.44116007692038,84.95926292187544
13.114321608040202,61.12520039188627,79.57202438355836,84.42546120036329,84.95801963165819
13.214824120603016,60.85029182266189,79.45634276186478,84.40947183916364,84.9567494778992
13.31532663316583,60.57668705061479,79.33965139167464,84.39318987263088,84.95545206433482
13.415829145728644,60.304403563193475,79.22196589349771,84.37661321915068,84.95412699701754
13.516331658291458,60.03345768475764,79.10330201882904,84.35973983626583,84.95277388402101
13.616834170854272,59.763864616832436,78.98367563866422,84.34256772077352,84.95139233517632
13.717336683417086,59.49563847748593,78.86310273225202,84.32509490883548,84.94998196183653
13.8178391959799,59.22879233981677,78.74159937608748,84.3073194760989,84.94854237666688
13.918341708542714,58.96333826954177,78.61918173314751,84.28923953782514,84.94707319345797
14.018844221105528,58.6992873616768,78.49586604237115,84.27085324902453,84.94557402695992
14.119346733668342,58.43664977630705,78.37166860838616,84.25215880459498,84.94404449273537
14.219849246231156,58.17543477344514,78.24660579148363,84.23315443946275,84.94248420702972
14.32035175879397,57.915650746978386,78.12069399784154,84.2138384287239,84.9408927866567
14.420854271356784,57.65730525770823,77.99394966999827,84.19420908778469,84.93926984889788
14.521356783919598,57.40040506548697,77.86638927757693,84.17426477250005,84.93761501141489
14.621859296482413,57.14495616045868,77.73802930826017,84.15400387930868,84.93592789217321
14.722361809045227,56.89096379341283,77.60888625901637,84.13342484536382,84.934208109376
14.82286432160804,56.63843250526006,77.47897662757629,84.112526148659,84.9324552814074
14.923366834170855,56.387366155641566,77.34831690415993,84.09130630814752,84.93066902678439
15.023869346733669,56.13776795068388,77.21692356345302,84.0697638838555,84.92884896411611
15.124371859296483,55.8896404699122,77.0848130568316,84.04789747698729,84.92699471207014
15.224874371859297,55.6429856923362,76.95200180483424,84.02570573002316,84.92510588934498
15.325376884422111,55.397805021722746,76.81850618987926,84.00318732680859,84.92318211464824
15.425879396984925,55.154099311070965,76.68434254922657,83.98034099263444,84.92122300667985
15.52638190954774,54.91186888630501,76.549527168181,83.95716549430836,84.91922818411987
15.626884422110553,54.671113569200976,76.4140762735356,83.93365964021622,84.91719726562039
15.727386934673367,54.431832699564175,76.27800602725249,83.9098222803741,84.9151298698013
15.827889447236181,54.194025156673675,76.14133252037855,83.88565230646999,84.91302561524935
15.928391959798995,53.95768938001074,76.00407176719342,83.86114865189538,84.91088412052032
16.02889447236181,53.72282338928859,75.8662396995868,83.8363102917665,84.90870500414377
16.12939698492462,53.48942480380022,75.72785216166211,83.8111362429349,84.90648788463054
16.229899497487438,53.2574908611016,75.58892490456337,83.78562556398764,84.90423238048223
16.33040201005025,53.02701843504755,75.4494735815218,83.75977735523666,84.90193811020283
16.430904522613066,52.79800405319689,75.30951374311898,83.73359075869752,84.89960469231221
16.531407035175878,52.57044391360432,75.16906083276297,83.70706495805729,84.89723174536094
16.631909547738694,52.34433390101553,75.02813018237336,83.6801991786319,84.894818887947
16.732412060301506,52.1196696024824,74.88673700827232,83.65299268731262,84.8923657387334
16.832914572864322,51.896446322414604,74.74489640727688,83.62544479250201,84.88987191646734
16.933417085427134,51.67465909708413,74.60262335298948,83.59755484403904,84.88733704000009
17.03391959798995,51.454302708598384,74.4599326922819,83.56932223311391,84.88476072830804
17.134422110552762,51.235371698358136,74.31683914196944,83.54074639217221,84.88214260051448
17.234924623115578,51.01786038001537,74.17335728567062,83.51182679480875,84.8794822759122
17.33542713567839,50.80176285194671,74.02950157084864,83.48256295565118,84.8767793739867
17.435929648241206,50.587073009256954,73.88528630603044,83.45295443023332,84.87403351443999
17.53643216080402,50.37378455532781,73.74072565819895,83.42300081485854,84.871244317215
17.636934673366834,50.1618910129258,73.59583365035472,83.39270174645317,84.86841140252027
17.737437185929647,49.95138573488375,73.45062415924241,83.36205690241019,84.86553439085532
17.837939698492463,49.74226191436916,73.3051109132381,83.33106600042314,84.86261290303601
17.938442211055275,49.534512594753366,73.15930749039327,83.29972879831075,84.8596465602206
18.03894472361809,49.32813067909407,73.01322731663105,83.26804509383214,84.85663498393575
18.139447236180903,49.12310893924452,72.86688366409078,83.23601472449279,84.85357779610291
18.23994974874372,48.919440024601215,72.7202896496166,83.20363756734154,84.8504746190649
18.34045226130653,48.71711647050289,72.57345823338598,83.17091353875888,84.84732507561253
18.440954773869347,48.51613070629192,72.42640221767391,83.13784259423639,84.84412878901148
18.54145728643216,48.31647506305026,72.279134245749,83.10442472814783,84.84088538302927
18.641959798994975,48.11814178102053,72.13166680089712,83.07065997351191,84.8375944819622
18.742462311557787,47.92112301672354,71.98401220556866,83.03654840174683,84.83425571066239
18.842964824120603,47.725410849782484,71.83618262064559,83.00209012241699,84.83086869456496
18.943467336683415,47.53099728946423,71.68819004482417,82.96728528297203,84.82743305971506
19.04396984924623,47.337874280947624,71.5400463141095,82.93213406847799,84.82394843279508
19.144472361809044,47.14603371132831,71.39176310141843,82.8966367013416,84.82041444115161
19.24497487437186,46.955467415369654,71.24335191628629,82.8607934410268,84.81683071282264
19.34547738693467,46.76616718100864,71.09482410467454,82.82460458376477,84.81319687656449
19.445979899497488,46.578124754625655,70.94619084887532,82.78807046225691,84.80951256187879
19.5464824120603,46.39133184608658,70.79746316750915,82.75119144537128,84.80577739903941
19.646984924623116,46.20578013356562,70.64865191561253,82.71396793783259,84.80199101911921
19.747487437185928,46.02146126815662,70.499767784812,82.67640037990611,84.79815305401685
19.847989949748744,45.83836687828076,70.3508213035807,82.63848924707541,84.79426313648335
19.948492462311556,45.65648857389813,70.20182283757518,82.60023504971431,84.79032090014873
20.048994974874372,45.47581795053036,70.05278259004776,82.56163833275328,84.78632597954824
20.149497487437184,45.29634659310126,69.90371060233268,82.52269967534029,84.78227801014887
20.25,45.11806607960243,69.75461675440171,82.48341969049655,84.7781766283754
