tau,N_2,N_4,N_8,N_16
0.25,527.9254665334441,527.7737804531255,527.7360002611495,527.7265640802096
0.35050251256281406,444.95333760307943,444.768434965034,444.7227015495656,444.71129919318986
0.4510050251256281,405.3579567237018,405.1480297846687,405.09682540579144,405.0841051425213
0.5515075376884422,383.51890053556446,383.2871645001538,383.23198816250965,383.218369650416
0.6520100502512562,370.28361539262846,370.0291840905535,369.9708236288706,369.95657003693367
0.7525125628140703,361.70646786771925,361.4249015905954,361.363616358907,361.34888400962916
0.8530150753768844,355.8624305441666,355.5460519592099,355.4816892611609,355.4665605605441
0.9535175879396985,351.7251153141472,351.36317644792666,351.2952417740272,351.2797464221683
1.0540201005025125,348.709150482605,348.2879130785342,348.21560929037713,348.1997375345696
1.1545226130653266,346.4625042782729,345.9652785457528,345.8875251154329,345.8712358029157
1.2550251256281406,344.76421727666286,344.1713895050997,344.086829561201,344.0700549130603
1.3555276381909547,343.4706555741301,342.7597234935943,342.66672376622785,342.64937213178194
1.4560301507537687,342.48570988034334,341.63133609246876,341.52798290077453,341.50994026582356
1.556532663316583,341.74350769750976,340.7175956579674,340.6016887693111,340.5828194636813
1.657035175879397,341.19798705766567,339.96978041145894,339.83882579212093,339.81897264013037
1.7575376884422111,340.8163923051903,339.3525962543818,339.20379828285303,339.18278232918095
1.8580402010050252,340.5750948092167,338.84001709756745,338.6702705944912,338.6478904853972
1.9585427135678393,340.45683708202034,338.4125457052101,338.218428047981,338.1944591287354
2.059045226130653,340.4488738485232,338.05536846352237,337.8331320288715,337.80732521498214
2.159547738693467,340.54169310414636,337.75708714535403,337.50265231692833,337.4747327982656
2.2600502512562812,340.7281209742124,337.5088315934135,337.2177805608143,337.18744639810495
2.3605527638190953,341.0026858537119,337.3036289425292,336.9712004949167,336.93812116494644
2.4610552763819094,341.36116096944045,337.1359486824481,336.75703416360915,336.7208491027006
2.5615577889447234,341.80023176280747,337.00137013602875,336.5705106830509,336.5308278690249
2.6620603015075375,342.31725188961036,336.89633634573556,336.4077214857676,336.3641160880944
2.762562814070352,342.910062967011,336.81796971689937,336.265437351029,336.2174504685949
2.863065326633166,343.57686071961103,336.7639323076382,336.1409700713343,336.08810756819736
2.96356783919598,344.31609525278157,336.73231874617807,336.03206670401784,335.9737981462705
3.064070351758794,345.1263966599085,336.7215732419799,335.93682785099537,335.87258554258034
3.1645728643216082,346.00651958719436,336.7304245729256,335.85364383329295,335.7828219452121
3.2650753768844223,346.9553020806805,336.757834622791,335.78114432553343,335.70309811106256
3.3655778894472363,347.97163525171374,336.8029572390206,335.7181582164519,335.6322033043545
3.4660804020100504,349.0544411698536,336.8651050327968,335.66368131716325,335.5690930751218
3.5665829145728645,350.20265702786196,336.9437223549868,335.6168501529227,335.5128631141441
3.6670854271356785,351.4152240912721,337.0383631237628,335.57692051777565,335.4627278647275
3.7675879396984926,352.69108029297,337.14867250179617,335.5432497943132,335.418002894624
3.8680904522613067,354.0291555945594,337.2743716573159,335.51528227738123,335.37809026795486
3.9685929648241207,355.42836943444746,337.41524501819816,335.49253691540224,335.3424663317051
4.069095477386934,356.88762973421143,337.5711295587158,335.4745970132282,335.31067146145244
4.169597989949748,358.4058330517691,337.74190575676505,335.4611015383589,335.282301408758
4.2701005025125625,359.9818655607612,337.9274899339603,335.451737746676,335.2569999668109
4.3706030150753765,361.61460460663756,338.1278277481637,335.44623490078175,335.23445272773256
4.471105527638191,363.3029206458124,338.342888652253,335.4443588980912,335.2143817488984
4.571608040201005,365.045679418363,338.5726611674832,335.44590766024044,335.19654097996977
4.672110552763819,366.8417442396605,338.8171488470241,335.4507071625013,335.180712329393
4.772613065326633,368.6899783240035,339.0763668268895,335.4586080034678,335.1667022706563
4.873115577889447,370.5892470752869,339.3503388788079,335.4694824325671,335.1543389058515
4.973618090452261,372.5384202971339,339.6390948935787,335.48322176690994,335.1434694180344
5.074120603015075,374.5363742886747,339.9426687348293,335.4997341403423,335.1339578552115
5.174623115577889,376.58199380298953,340.26109641239475,335.51894253683554,335.12568319805445
5.275125628140704,378.6741738537122,340.5944145322051,335.54078306797624,335.118537671066
5.375628140703518,380.81182136188676,340.9426589859031,335.56520346061365,335.11242526322184
5.476130653266332,382.99385664024027,341.30586384869423,335.5921617259411,335.1072604293316
5.576633165829146,385.21921471588655,341.68406045834627,335.6216249856339,335.1029669477162
5.67713567839196,387.48684649534374,342.07727665195983,335.65356843429583,335.09947691342785
5.777638190954774,389.795719777842,342.4855361402673,335.68797442050345,335.09672984928517
5.878140703517588,392.1448201243556,342.90885800186896,335.7248316312977,335.09467191955446
5.978643216080402,394.5331515907678,343.3472562820753,335.76413436711937,335.09325523326214
6.0791457286432165,396.9597373341612,343.8007396829582,335.8058818960075,335.09243722594493
6.1796482412060305,399.4236201015036,344.26931133287064,335.8500778774195,335.0921801101883
6.280150753768845,401.9238626100532,344.75296862512596,335.89672984733846,335.09245038661106
6.380653266331659,404.4595478286768,345.2517031167626,335.9458487574481,335.09321840807047
6.481155778894473,407.0297791690187,345.76550047939367,335.9974485621053,335.0944579908105
6.581658291457287,409.63368059510697,346.29434049507984,336.051545847652,335.09614606709306
6.682160804020101,412.27039665956585,346.83819709097645,336.1081594993057,335.09826237454513
6.782663316582915,414.9390924741436,347.39703840722797,336.1673104014663,335.10078917805635
6.883165829145729,417.6389536217839,347.97082689321326,336.2290211677911,335.10371102057763
6.983668341708543,420.3691860169726,348.5595194278007,336.2933158978375,335.10701449961493
7.084170854271357,423.1290157206,349.1630674597664,336.3602199574552,335.11068806660046
7.184673366834171,425.9176887150961,349.78141716496765,336.4297597804457,335.1147218466571
7.285175879396985,428.7344706451221,350.41450961724837,336.50196268929574,335.1191074765622
7.385678391959799,431.57864652865726,351.0622809704048,336.5768567330455,335.12383795897176
7.486180904522613,434.449520442886,351.7246626488436,336.6544705405714,335.1289075311857
7.586683417085427,437.34641518888895,352.4015815448441,336.73483318775783,335.134311546931
7.687185929648241,440.26867193876086,353.0929602205815,336.8179740771995,335.14004636980724
7.7876884422110555,443.2156498684219,353.79871711329133,336.90392282922676,335.1461092771897
7.88819095477387,446.1867257790639,354.51876674214947,336.9927091831743,335.15249837351706
7.988693467336684,449.1812937098626,355.25301991562503,337.08436290793094,335.15921251200547
8.089195979899497,452.19876454430926,356.00138393821965,337.1789137209073,335.16625122393464
8.18969849246231,455.23856561225705,356.76376281564995,337.2763912146514,335.1736146547415
8.290201005025125,458.3001402895367,357.5400574576607,337.3768247904174,335.18130350623846
8.390703517587939,461.38294759678587,358.3301658777687,337.4802435980664,335.1893189843428
8.491206030150753,464.4864617989329,359.1339833893419,337.58667648173997,335.1976627517705
8.591708542713567,467.61017200660245,359.9514027975115,337.69615193080153,335.2063368852007
8.692211055276381,470.75358178054336,360.78231458649594,337.8086980355915,335.2153438364704
8.792713567839195,473.91620874003445,361.6266071019906,337.92434244758584,335.2246863974021
8.89321608040201,477.0975841760916,362.48416672834344,338.0431123435875,335.2343676679085
8.993718592964823,480.29725267017733,363.3548780602944,338.16503439361367,335.244391027054
9.094221105527637,483.5147717190104,364.2386240691106,338.2901347321753,335.2547601067836
9.194723618090451,486.74971136597185,365.13528626299245,338.4184389326732,335.2654787680613
9.295226130653266,490.00165383952293,366.0447448416725,338.5499719846584,335.2765510791843
9.39572864321608,493.2701931989679,366.9668788451581,338.684758273729,335.287981296061
9.496231155778894,496.5549349878308,367.90156629660703,338.822821563857,335.2997738442655
9.596733668341708,499.8554958950506,368.8486843393493,338.96418498195175,335.3119333026964
9.697236180904522,503.1715034241474,369.80810936809473,339.10887100449065,335.3244643886864
9.797738693467336,506.5025955704638,370.77971715438514,339.2569014460563,335.337371944424
9.89824120603015,509.8484205065428,371.7633829663711,339.4082974496355,335.35066092456066
9.998743718592964,513.2086362756679,372.75898168300614,339.5630794785466,335.36433638489353
10.099246231155778,516.5829104935577,373.7663879027642,339.7212673098741,335.3784034720176
10.199748743718592,519.9709200581804,374.78547604700185,339.8828800292961,335.3928674138588
10.300251256281408,523.3723508676253,375.8161204580893,340.0479360272035,335.407733511003
10.400753768844222,526.7868975459558,376.8581954924472,340.21645299601323,335.4230071287462
10.501256281407036,530.2142631769381,377.9115756086297,340.3884479285887,335.43869368979915
10.60175879396985,533.6541590455372,378.97613545059886,340.5639371176853,335.45479866758336
10.702261306532664,537.1063043870498,380.05174992634085,340.74293615634656,335.4713275800651
10.802763819095478,540.5704261437345,381.13829428197323,340.9254599391787,335.48828598407636
10.903266331658292,544.0462587287967,382.2356441714988,341.11152266444134,335.50567947007755
11.003768844221106,547.5335437975705,383.34367572235686,341.3011378368921,335.52351365732255
11.10427135678392,551.0320300257375,384.46226559692695,341.4943182713292,335.5417941893873
11.204773869346734,554.5414728944215,385.5912910501368,341.6910760967806,335.56052673003023
11.305276381909549,558.061634481988,386.7306299833262,341.8914227612892,335.5797169593537
11.405778894472363,561.5922832623806,387.8801609945145,342.09536903724995,335.59937057023956
11.506281407035177,565.1331939098243,389.03976342522185,342.30292502725473,335.6194932650336
11.60678391959799,568.684147109722,390.20931740398515,342.51410017040666,335.64009075245855
11.707286432160805,572.2449293755766,391.3887038867128,342.7289032490647,335.6611687447321
11.807788944723619,575.8153328717657,392.57780469401547,342.94734239598387,335.682732954876
11.908291457286433,579.3951552420004,393.7765025456488,343.16942510181974,335.7047890941962
12.008793969849247,582.9841994433046,394.98468109219834,343.3951582229626,335.72734286992176
12.109296482412061,586.5822735853448,396.20222494413645,343.6245479896761,335.75039998298683
12.209798994974875,590.1891907749529,397.42901969837334,343.85760001450984,335.773966125946
12.31030150753769,593.8047689656798,398.66495196242465,344.09431930096207,335.79804698101015
12.410804020100503,597.4288308122258,399.9099093763102,344.33471025236645,335.82264821819314
12.511306532663317,601.0612035295908,401.16378063229826,344.5787766809817,335.8477754935618
12.611809045226131,604.7017187567992,402.4264554926029,344.8265218172614,335.87343444757886
12.712311557788945,608.3502124250501,403.6978248051403,345.0779483192825,335.89963070353343
12.81281407035176,612.0065246301505,404.9777805174442,345.3330582823163,335.9263698660512
12.913316582914574,615.6704995090926,406.26621568883854,345.5918532485204,335.95365751967853
13.013819095477388,619.3419851206405,407.56302450096064,345.85433421673656,335.9814992275358
13.114321608040202,623.0208333297936,408.8681022667248,346.12050165237747,336.00990053003335
13.214824120603016,626.7068996959964,410.18134543781224,346.390355497387,336.03886694364786
13.31532663316583,630.4000433649757,411.50265161077124,346.66389518026057,336.06840395975263
13.415829145728644,634.1001269640789,412.8319195318053,346.9411196261096,336.09851704350024
13.516331658291458,637.8070165009976,414.1690491003264,347.2220272667608,336.12921163275286
13.616834170854272,641.520581265766,415.5139413713456,347.5066160508742,336.1604931370579
13.717336683417086,645.2406937359187,416.8664985567707,347.79488345407225,336.1923669366658
13.8178391959799,648.9672294847044,418.22662402567676,348.0868264890658,336.224838381588
13.918341708542714,652.7000670922525,419.5942223036136,348.3824417157698,336.25791279069193
14.018844221105528,656.4390880595909,420.969199071011,348.68172525139676,336.29159545083286
14.119346733668342,660.1841767254178,422.35146116073736,348.98467278052055,336.32589161601777
14.219849246231156,663.9352201855371,423.7409165548701,349.29127956510234,336.3608065066027
14.32035175879397,667.6921082148629,425.137474380727,349.60154045446814,336.3963453085198
14.420854271356784,671.4547331919084,426.5410449062104,349.9154498952348,336.4325131725335
14.521356783919598,675.2229900256733,427.9515395345108,350.2330019411736,336.46931521352485
14.621859296482413,678.9967760848486,429.36887079821537,350.55419026300694,336.50675650980236
14.722361809045227,682.7759911292602,430.7929523528641,350.87900815813197,336.544842102438
14.82286432160804,686.5605372434729,432.2236989699942,351.2074485602644,336.58357699462834
14.923366834170855,690.3503187724851,433.66102652971153,351.53950404899973,336.62296615107886
15.023869346733669,694.14524225944,435.1048520128265,351.8751668592828,336.66301449741167
15.124371859296483,697.945216385285,436.5550934925875,352.21442889078605,336.7037269195949
15.224874371859297,701.7501519103146,438.01167012604606,352.55728171718863,336.7451082633933
15.325376884422111,705.5599616175327,439.47450214508575,352.90371659535384,336.78716333384057
15.425879396984925,709.3745602577703,440.943510847142,353.2537244744019,336.8298968947305
15.52638190954774,713.1938644965029,442.41861858564323,353.6072960046738,336.8733136681288
15.626884422110553,717.0177928623066,443.89974876019807,353.96442154658337,336.91741833390347
15.727386934673367,720.8462656968998,445.3868258065548,354.32509117935587,336.9622155292742
15.827889447236181,724.6792051067167,446.87977518635614,354.68929470964986,337.007709848379
15.928391959798995,728.5165349159599,448.37852337671086,355.0570216800596,337.05390584186017
16.02889447236181,732.3581806210839,449.88299785960527,355.4282613774975,337.10080801646586
16.12939698492462,736.2040693466605,451.3931271111722,355.80300284145386,337.14842083467005
16.229899497487438,740.0541298025814,452.90884059083777,356.18123487213245,337.1967487143081
16.33040201005025,743.908292242549,454.43006873036205,356.5629460384611,337.24579602822956
16.430904522613066,747.7664884238205,455.9567429227923,356.9481246859755,337.295567103966
16.531407035175878,751.6286515681539,457.48879551134087,357.33675894457605,337.34606622341516
16.631909547738694,755.4947163239245,459.02615977820767,357.72883673615655,337.39729762254046
16.732412060301506,759.3646187293667,460.5687699333539,358.12434578210394,337.4492654910854
16.832914572864322,763.2382961769091,462.11656110324685,358.52327361066915,337.5019739723028
16.933417085427134,767.1156873785623,463.6694693195832,358.9256075642082,337.55542716269883
17.03391959798995,770.9967323323297,465.2274315080035,359.33133480629436,337.60962911179166
17.134422110552762,774.881372289602,466.79038547680943,359.74044232870006,337.66458382188296
17.234924623115578,778.7695497235088,468.3582699056914,360.1529169582494,337.72029524784506
17.33542713567839,782.6612082981912,469.931024334478,360.56874536354235,337.7767672969205
17.435929648241206,786.5562928389704,471.50858915191446,360.9879140615482,337.8340038285354
17.53643216080402,790.4547493033788,473.0909055844781,361.4104094240725,337.8920086541259
17.636934673366834,794.356524753027,474.67791568523967,361.83621768409466,337.950785536978
17.737437185929647,798.2615673262821,476.26956232277473,362.2653249419791,338.0103381920793
17.837939698492463,802.1698262117292,477.86578917013475,362.69771717155953,338.07067028598453
17.938442211055275,806.0812516223871,479.4665406938807,363.13338022609724,338.1317854366923
18.03894472361809,809.9957947706646,481.07176214318747,363.572299844115,338.1936872135348
18.139447236180903,813.913407844021,482.68139953902175,364.0144616551069,338.2563791370789
18.23994974874372,817.834043981319,484.29539966339854,364.459851185125,338.3198646790395
18.34045226130653,821.7576572498401,485.9137100487225,364.9084538622444,338.3841472622041
18.440954773869347,825.6842026229488,487.53627896721565,365.360255021908,338.449230260369
18.54145728643216,829.6136359583772,489.163055420435,365.815239912151,338.5151169982864
18.641959798994975,833.5459139771186,490.79398912888576,366.2733936987078,338.5818107516227
18.742462311557787,837.480994242904,492.4290305217302,366.7347014700018,338.64931474692776
18.842964824120603,841.4188351422486,494.0681307265968,367.19914824201953,338.7176321616142
18.943467336683415,845.3593958650459,495.71124155949093,367.66671896307054,338.78676612394776
19.04396984924623,849.302636385699,497.35831551480925,368.1373985184342,338.85671971304777
19.144472361809044,853.2485174447619,499.00930575546107,368.61117173489606,338.9274959588971
19.24497487437186,857.1970005310882,500.6641661030962,369.08802338517285,338.999097842363
19.34547738693467,861.1480478644595,502.32285102844196,369.5679381922298,339.07152829522664
19.445979899497488,865.1016223786871,503.98531564175175,370.0509008334914,339.1447902002227
19.5464824120603,869.0576877051686,505.65151568336285,370.5368959449456,339.2188863910883
19.646984924623116,873.016208156886,507.32140751436765,371.02590812514507,339.293819652621
19.747487437185928,876.977148712833,508.9949481073986,371.5179219391057,339.3695927207452
19.847989949748744,880.9404750028581,510.67209503752474,372.01292192210457,339.4462082825888
19.948492462311556,884.9061532929085,512.3528064732634,372.5108925833781,339.5236689765666
20.048994974874372,888.8741504706685,514.0370411677063,373.01181840972356,339.6019773924736
20.149497487437184,892.8444340315739,515.7247584497593,373.51568386900374,339.6811360715859
20.25,896.8169720651955,517.4159182154974,374.02247341355746,339.7611475067698
