tau,N_256
0.25,24.495798926645953
0.35050251256281406,17.807843040448688
0.4510050251256281,14.181631071384462
0.5515075376884422,11.939228313706698
0.6520100502512562,10.436756844003723
0.7525125628140703,9.374033307345167
0.8530150753768844,8.592233905320523
0.9535175879396985,7.999505771761098
1.0540201005025125,7.539120652530973
1.1545226130653266,7.174245239869809
1.2550251256281406,6.8800133145412135
1.3555276381909547,6.639111099926572
1.4560301507537687,6.439180015237439
1.556532663316583,6.271217302346939
1.657035175879397,6.128552697385652
1.7575376884422111,6.006172178910266
1.8580402010050252,5.900258712049301
1.9585427135678393,5.807873092388687
2.059045226130653,5.726727812622192
2.159547738693467,5.655024219738774
2.2600502512562812,5.591333655676896
2.3605527638190953,5.534509728162467
2.4610552763819094,5.483622961962776
2.5615577889447234,5.437911754262057
2.6620603015075375,5.396745338968504
2.762562814070352,5.359595675998961
2.863065326633166,5.326016021059973
2.96356783919598,5.295624523506849
3.064070351758794,5.2680916241386155
3.1645728643216082,5.2431303332026715
3.2650753768844223,5.220488695898721
3.3655778894472363,5.1999439215483
3.4660804020100504,5.181297779303679
3.5665829145728645,5.164372958961817
3.6670854271356785,5.149010168049591
3.7675879396984926,5.135065791581306
3.8680904522613067,5.122409982961504
3.9685929648241207,5.1109250865449845
4.069095477386934,5.100504316730885
4.169597989949748,5.091050636953749
4.2701005025125625,5.082475795917832
4.3706030150753765,5.0746994889604435
4.471105527638191,5.067648620343172
4.571608040201005,5.061256648186653
4.672110552763819,5.055462998171088
4.772613065326633,5.0502125353938885
4.873115577889447,5.04545508619343
4.973618090452261,5.041145003531375
5.074120603015075,5.037240770840059
5.174623115577889,5.03370464021044
5.275125628140704,5.030502301512749
5.375628140703518,5.027602579575348
5.476130653266332,5.024977156948537
5.576633165829146,5.022600320086236
5.67713567839196,5.020448727016927
5.777638190954774,5.018501194765346
5.878140703517588,5.0167385049422295
5.978643216080402,5.015143226050659
6.0791457286432165,5.013699551171118
6.1796482412060305,5.012393149788108
6.280150753768845,5.011211032612123
6.380653266331659,5.010141428334271
6.481155778894473,5.009173671328217
6.581658291457287,5.008298099386376
6.682160804020101,5.007505960645046
6.782663316582915,5.006789328916729
6.883165829145729,5.006141026707712
6.983668341708543,5.005554555255029
7.084170854271357,5.005024030969532
7.184673366834171,5.004544127720994
7.285175879396985,5.004110024447089
7.385678391959799,5.003717357610886
7.486180904522613,5.0033621780712725
7.586683417085427,5.003040911967596
7.687185929648241,5.002750325253944
7.7876884422110555,5.0024874915500614
7.88819095477387,5.0022497630049205
7.988693467336684,5.0020347438957815
8.089195979899497,5.00184026671015
8.18969849246231,5.001664370480606
8.290201005025125,5.001505281163207
8.390703517587939,5.001361393869043
8.491206030150753,5.001231256775898
8.591708542713567,5.001113556562754
8.692211055276381,5.001007105224295
8.792713567839195,5.000910828135764
8.89321608040201,5.000823753250489
8.993718592964823,5.000745001323313
9.094221105527637,5.0006737770630965
9.194723618090451,5.000609361126494
9.295226130653266,5.000551102873422
9.39572864321608,5.000498413812069
9.496231155778894,5.000450761668098
9.596733668341708,5.0004076650188205
9.697236180904522,5.000368688438707
9.797738693467336,5.000333438107653
9.89824120603015,5.000301557838008
9.998743718592964,5.00027272548054
10.099246231155778,5.000246649673281
10.199748743718592,5.000223066900595
10.300251256281408,5.000201738832931
10.400753768844222,5.000182449920521
10.501256281407036,5.000165005216803
10.60175879396985,5.00014922840969
10.702261306532664,5.000134960040836
10.802763819095478,5.000122055894997
10.903266331658292,5.0001103855432225
11.003768844221106,5.000099831025227
11.10427135678392,5.00009028565764
11.204773869346734,5.000081652956126
11.305276381909549,5.000073845660497
11.405778894472363,5.000066784852976
11.506281407035177,5.000060399160735
11.60678391959799,5.000054624034647
11.707286432160805,5.000049401096947
11.807788944723619,5.000044677551277
11.908291457286433,5.000040405649089
12.008793969849247,5.000036542207069
12.109296482412061,5.00003304817069
12.209798994974875,5.000029888219473
12.31030150753769,5.000027030409994
12.410804020100503,5.000024445853016
12.511306532663317,5.000022108421475
12.611809045226131,5.00001999448641
12.712311557788945,5.000018082678101
12.81281407035176,5.0000163536700715
12.913316582914574,5.0000147899837355
13.013819095477388,5.000013375811709
13.114321608040202,5.000012096858029
13.214824120603016,5.000010940193643
13.31532663316583,5.000009894125705
13.415829145728644,5.000008948079394
13.516331658291458,5.000008092491002
13.616834170854272,5.000007318711261
13.717336683417086,5.0000066189179115
13.8178391959799,5.000005986036626
13.918341708542714,5.000005413669499
14.018844221105528,5.000004896030365
14.119346733668342,5.000004427886313
14.219849246231156,5.00000400450478
14.32035175879397,5.000003621605718
14.420854271356784,5.000003275318321
14.521356783919598,5.000002962141895
14.621859296482413,5.000002678910472
14.722361809045227,5.000002422760803
14.82286432160804,5.00000219110341
14.923366834170855,5.000001981596421
15.023869346733669,5.000001792121877
15.124371859296483,5.000001620764336
15.224874371859297,5.000001465791507
15.325376884422111,5.000001325636729
15.425879396984925,5.000001198883145
15.52638190954774,5.000001084249373
15.626884422110553,5.0000009805765515
15.727386934673367,5.000000886816627
15.827889447236181,5.000000802021757
15.928391959798995,5.000000725334727
16.02889447236181,5.000000655980292
16.12939698492462,5.0000005932573295
16.229899497487438,5.000000536531756
16.33040201005025,5.00000048523012
16.430904522613066,5.0000004388337995
16.531407035175878,5.000000396873763
16.631909547738694,5.000000358925824
16.732412060301506,5.00000032460636
16.832914572864322,5.000000293568424
16.933417085427134,5.000000265498247
17.03391959798995,5.000000240112062
17.134422110552762,5.00000021715323
17.234924623115578,5.0000001963896565
17.33542713567839,5.000000177611436
17.435929648241206,5.000000160628737
17.53643216080402,5.000000145269874
17.636934673366834,5.000000131379583
17.737437185929647,5.00000011881744
17.837939698492463,5.000000107456455
17.938442211055275,5.000000097181775
18.03894472361809,5.000000087889531
18.139447236180903,5.000000079485784
18.23994974874372,5.000000071885579
18.34045226130653,5.0000000650120855
18.440954773869347,5.000000058795815
18.54145728643216,5.000000053173927
18.641959798994975,5.000000048089587
18.742462311557787,5.000000043491398
18.842964824120603,5.000000039332875
18.943467336683415,5.000000035571977
19.04396984924623,5.000000032170686
19.144472361809044,5.000000029094617
19.24497487437186,5.000000026312674
19.34547738693467,5.000000023796731
19.445979899497488,5.000000021521355
19.5464824120603,5.0000000194635446
19.646984924623116,5.000000017602497
19.747487437185928,5.000000015919397
19.847989949748744,5.00000001439723
19.948492462311556,5.000000013020609
20.048994974874372,5.000000011775616
20.149497487437184,5.000000010649666
20.25,5.000000009631376
