tau,N_2,N_4,N_6,N_8,N_10,N_16
0.25,13.789615892909117,13.789568402027468,13.789565858674337,13.789565430617202,13.789565313632687,13.789565244853526
0.35050251256281406,10.462481149295392,10.462343007971139,10.462335602391398,10.462334355752727,10.462334015031571,10.462333814701116
0.4510050251256281,8.666298057899294,8.665986987651927,8.665970289245445,8.665967477531623,8.665966708982076,8.665966257078875
0.5515075376884422,7.56212851163766,7.561526841676109,7.5614944900902845,7.56148904087563,7.561487551215665,7.561486675238897
0.6520100502512562,6.8280654785164145,6.8270136802612456,6.826957013592754,6.826947465082295,6.826944854415523,6.826943319109601
0.7525125628140703,6.314051829192928,6.3123416736499784,6.3122493263627755,6.312233758508168,6.312229501375578,6.312226997545833
0.8530150753768844,5.940712822298139,5.9380803395112896,5.937937817822952,5.937913779225627,5.937907204463076,5.937903337073896
0.9535175879396985,5.662161860620098,5.658280274922521,5.658069517149274,5.658033948938506,5.658024218656915,5.658018494395886
1.0540201005025125,5.450077492307916,5.444550292559604,5.444249221245274,5.444198379006564,5.444184466980946,5.4441762814544195
1.1545226130653266,5.286088840590263,5.278443123823715,5.278025195549166,5.27795457022331,5.277935239934452,5.277923864635004
1.2550251256281406,5.157812036507655,5.147492239332235,5.146925997052812,5.1468302355520406,5.146804018077183,5.146788587235661
1.3555276381909547,5.056643342950393,5.043005450288966,5.042254082002313,5.042126908117383,5.042092080019363,5.042071577426582
1.4560301507537687,4.9764610385767885,4.958767335797608,4.957788242394173,4.957622378410317,4.95757693973225,4.957550185590628
1.556532663316583,4.91282626466726,4.890240678168871,4.8889850525165786,4.888772141825666,4.888713794262774,4.888679432107385
1.657035175879397,4.862471880444571,4.834055933816653,4.832468352499973,4.832198883394299,4.832125008686948,4.832081492399327
1.7575376884422111,4.822964800948136,4.787674199012332,4.7856922276793625,4.7853554584382785,4.785263097010226,4.7852086779365575
1.8580402010050252,4.792476737771188,4.749158578818978,4.746712391766864,4.746296277097496,4.746182106949955,4.746114821127389
1.9585427135678393,4.769624861320096,4.717015468266202,4.714027482686842,4.71351860154947,4.713378917413399,4.713296572903575
2.059045226130653,4.75335882191613,4.690082175402961,4.686466700587656,4.685850185420145,4.685680878165055,4.685581042491422
2.159547738693467,4.742879250170517,4.667446000469001,4.663108902205901,4.662368369555326,4.662164905851354,4.662044893536101
2.2600502512562812,4.737578080862994,4.6483851103832095,4.643223490753173,4.642340973322865,4.642098375553175,4.6419552357497835
2.3605527638190953,4.736994282024758,4.632324786136433,4.626226678904715,4.625182559028601,4.624895385450426,4.624725889668607
2.4610552763819094,4.740780631716465,4.6188046822289754,4.611648764030536,4.610421708591921,4.610084033746208,4.60988466366712
2.5615577889447234,4.748678528609859,4.607454081582491,4.599109399099885,4.5976762959174,4.597281691288931,4.597048626669584
2.6620603015075375,4.7604987174752456,4.597973024973066,4.588298738303496,4.586634634012118,4.586176148943603,4.585905255610535
2.762562814070352,4.776106418298035,4.590117802253389,4.578962944653162,4.577040984112527,4.576511126977716,4.576197944910867
2.863065326633166,4.795409767281109,4.583689712751961,4.5708929669314315,4.568684334196939,4.568075053838987,4.567714785347579
2.96356783919598,4.818350772004069,4.5785262968244895,4.563915787944604,4.5613896488390555,4.560692316281364,4.560279814274139
3.064070351758794,4.844898191790083,4.574494449864881,4.557887555358265,4.555011001683016,4.554216392120467,4.553746148473198
3.1645728643216082,4.8750419043271425,4.571484980602128,4.55268815690801,4.549426152332977,4.548524427411934,4.547990561435409
3.2650753768844223,4.908788428484192,4.569408284885708,4.548216911149891,4.544532238821334,4.54351292921705,4.5429091762290374
3.3655778894472363,4.946157353064572,4.568190886396908,4.544389125146342,4.540242337050242,4.539094325350447,4.538414025355229
3.4660804020100504,4.987178480226691,4.567772655086652,4.5411333298438175,4.536482697961078,4.535194201864446,4.534430288343617
3.5665829145728645,5.031889536253616,4.568104558404901,4.538389048161116,4.533190517448734,4.531749073286785,4.530894062105001
3.6670854271356785,5.08033433534934,4.569146833630157,4.536104984049737,4.530312127279667,4.528704573870455,4.527750552299761
3.7675879396984926,5.1325613070909215,4.570867494740324,4.534237545919951,4.527801520404716,4.526013983246297,4.524952599112578
3.8680904522613067,5.188622317167341,4.573241106384861,4.532749636945264,4.525619143176421,4.523637018987759,4.52245946994277
3.9685929648241207,5.248571725608151,4.5762477721467985,4.531609659387319,4.523730901609872,4.5215388432264465,4.520235866148694
4.069095477386934,5.312465637958921,4.57987229553772,4.530790691339149,4.5221073400818,4.5196892417127446,4.5182511022403835
4.169597989949748,5.380361313613147,4.584103480872587,4.530269802990081,4.520722959568053,4.518061942421196,4.516478424619934
4.2701005025125625,5.452316702366737,4.5889335479357305,4.530027486282221,4.519555649286035,4.516634047566807,4.514894443735638
4.3706030150753765,5.528390085670853,4.594357639631377,4.530047177112735,4.518586210893185,4.51538555818286,4.513478658800314
4.471105527638191,5.608639803358547,4.600373405955212,4.53031485338201,4.517797958538267,4.514298974556583,4.51221305836999
4.571608040201005,5.693124050062676,4.606980650887276,4.530818695454308,4.517176381328951,4.513358959085718,4.5110817833458645
4.672110552763819,5.78190072831805,4.614181031388195,4.5315487981823575,4.516708857363984,4.5125520507038255,4.51007084154723
4.772613065326633,5.875027347594217,4.6219777997311695,4.532496925700739,4.516384410531769,4.5118664220757845,4.509167865056653
4.873115577889447,5.972560960347109,4.630375582036655,4.533656301830773,4.516193502915068,4.511291672402735,4.508361903176588
4.973618090452261,6.074558127692606,4.639380187184621,4.535021430250742,4.516127856952785,4.510818649987085,4.507643245147865
5.074120603015075,6.181074908557869,4.6489984413295256,4.536587939638872,4.516180302563453,4.51043929976179,4.507003267834232
5.174623115577889,6.292166867207737,4.659238044089486,4.538352449846067,4.516344645284706,4.51014653183787,4.506434304426709
5.275125628140704,6.407889094913061,4.670107443165302,4.540312455842837,4.516615552170565,4.509934107811607,4.505929530909213
5.375628140703518,6.528296242256261,4.6816157247000625,4.542466226743066,4.516988452746686,4.509796542131248,4.505482867585148
5.476130653266332,6.653442559181649,4.693772517141655,4.544812717661993,4.517459452778476,4.5097290162778325,4.505088893419471
5.576633165829146,6.783381940413363,4.706587906739224,4.547351492537403,4.518025258978797,4.509727303886502,4.504742771322593
5.67713567839196,6.91816797429833,4.720072363106444,4.550082656347819,4.518683113086795,4.5097877052395585,4.504440182807263
5.777638190954774,7.057853993497921,4.734236673532493,4.553006795412172,4.519430734000145,4.509906989813274,4.504177270700395
5.878140703517588,7.202493126260964,4.749091884925848,4.556124924662226,4.520266266850031,4.510082345767459,4.503950588798785
5.978643216080402,7.352138347270798,4.764649252444836,4.55943844095041,4.521188238079442,4.510311335438123,4.503757057529023
6.0791457286432165,7.50684252727762,4.780920194008838,4.562949081597774,4.522195515727733,4.51059185603588,4.5035939248141466
6.1796482412060305,7.666658480910613,4.797916250000333,4.566658887505396,4.523287274242908,4.510922104871283,4.503458731468245
6.280150753768845,7.831639012217286,4.8156490475650795,4.57057017025141,4.524462963242168,4.511300548527395,4.503349280539201
6.380653266331659,8.001836957604594,4.834130268998881,4.574685482678925,4.525722279724344,4.511725895482912,4.503263610102882
6.481155778894473,8.177305225961621,4.853371623777559,4.579007592549779,4.5270651433076745,4.512197071759069,4.503199969081955
6.581658291457287,8.358096835829832,4.873384823844189,4.583539458897971,4.528491674125313,4.512713199222431,4.503156795721386
6.682160804020101,8.544264949557185,4.8941815618161595,4.588284210766358,4.53000217306084,4.513273576225611,4.503132698402577
6.782663316582915,8.735862904429107,4.9157734918157585,4.593245128052452,4.531597104048357,4.513877660310213,4.50312643852044
6.883165829145729,8.932944240814313,4.9381722126630505,4.598425624225134,4.533277078197811,4.5145250527324,4.503136915183744
6.983668341708543,9.13556272739883,4.961389253199715,4.603829230704741,4.535042839536952,4.515215484602263,4.503163151529811
7.084170854271357,9.343772383608586,4.985436059538182,4.60945958272532,4.536895252187736,4.515948804454488,4.503204282471088
7.184673366834171,9.557627499341173,5.01032398405254,4.615320406520344,4.538835288817585,4.51672496709057,4.503259543713697
7.285175879396985,9.777182652141727,5.03606427594675,4.6214155076926815,4.540864020225502,4.517544023552236,4.503328261907643
7.385678391959799,10.002492721967565,5.062668073252372,4.627748760646313,4.542982605939844,4.5184061121026975,4.503409845805191
7.486180904522613,10.233612903691983,5.090146396122373,4.634324098971875,4.545192285719222,4.519311450106931,4.50350377831857
7.586683417085427,10.470598717500106,5.11851014130039,4.641145506690675,4.547494371860658,4.520260326714876,4.503609609380821
7.687185929648241,10.713506017329733,5.147770077655842,4.648217010272789,4.549890242230217,4.521253096262533,4.5037269495247285
7.7876884422110555,10.962390997507972,5.177936842685236,4.65554267135445,4.55238133394096,4.5222901723155795,4.5038554641043484
7.88819095477387,11.217310197730908,5.209020939888692,4.663126580088255,4.554969137611544,4.523372022288595,4.503994868092196
7.988693467336684,11.478320506528497,5.241032736938522,4.67097284906705,4.557655192146195,4.524499162580391,4.504144921392497
8.089195979899497,11.745479163351288,5.273982464563703,4.6790856077688225,4.560441079983291,4.525672154172479,4.504305424617473
8.18969849246231,12.018843759408888,5.30788021608029,4.687468997475501,4.563328422765566,4.526891598643449,4.504476215279355
8.290201005025125,12.29847223738343,5.342735947503564,4.696127166623628,4.566318877389978,4.528158134557105,4.50465716435592
8.390703517587939,12.584422890133968,5.378559478182761,4.705064266549212,4.5694141323997775,4.529472434186705,4.504848173191796
8.491206030150753,12.87675435850066,5.415360491903956,4.714284447592959,4.572615904685305,4.530835200541606,4.505049170701793
8.591708542713567,13.175525628310218,5.453148538410903,4.723791855535543,4.575925936463537,4.532247164666166,4.505260110846008
8.692211055276381,13.48079602667702,5.491933035297559,4.733590628335604,4.579345992509543,4.533709083183878,4.50548097034965
8.792713567839195,13.792625217687347,5.53172327022961,4.743684893145867,4.5828778576158,4.535221736062509,4.5057117466432235
8.89321608040201,14.111073197547396,5.572528403455576,4.754078763585189,4.586523334257791,4.536785924578503,4.50595245600131
8.993718592964823,14.436200289269332,5.614357470571226,4.7647763372464835,4.59028424044653,4.538402469461119,4.506203131860324
9.094221105527637,14.768067136963326,5.657219385503731,4.77578169342237,4.594162407750606,4.540072209198781,4.506463823297627
9.194723618090451,15.106734699797896,5.70112294368474,4.787098891032072,4.5981596794721415,4.541795998491851,4.506734593656186
9.295226130653266,15.452264245685026,5.746076825383898,4.798731966734674,4.602277908962615,4.543574706837666,4.507015519300503
9.39572864321608,15.804717344741686,5.792089599176635,4.810684933215091,4.606518958065905,4.545409217235089,4.507306688490989
9.496231155778894,16.16415586257416,5.839169725522211,4.822961777630438,4.610884695677198,4.547300424997057,4.507608200365258
9.596733668341708,16.53064195342731,5.887325560429875,4.83556646020546,4.615376996407528,4.549249236660836,4.507920164015886
9.697236180904522,16.904238053236597,5.936565359192941,4.848502912966734,4.619997739344722,4.551256568986637,4.508242697655302
9.797738693467336,17.285006872616613,5.986897280172244,4.8617750386061624,4.624748806902464,4.553323348036214,4.508575927859326
9.89824120603015,17.673011389816555,6.0383293886120555,4.875386709465109,4.6296320837499865,4.555450508323913,4.50891998888175
9.998743718592964,18.06831484366947,6.090869660473046,4.889341766631181,4.634649455815643,4.557638992033312,4.509275022033057
10.099246231155778,18.47098072655915,6.1445259862683015,4.903644019140332,4.639802809358279,4.559889748293356,4.509641175117103
10.199748743718592,18.88107277742571,6.199306174889678,4.918297243277489,4.645094030100922,4.562203732508422,4.5100186019201445
10.300251256281408,19.298654974828402,6.255217957413018,4.933305181969435,4.650525002421815,4.564581905737347,4.5104074617471595
10.400753768844222,19.7237915300816,6.312268990871908,4.948671544264149,4.656097608598335,4.567025234116885,4.5108079190009045
10.501256281407036,20.156546880478178,6.370466861990717,4.96440000489119,4.66181372809975,4.569534688325567,4.511220142799589
10.60175879396985,20.596985682612118,6.429819090868635,4.980494203898098,4.667675236925155,4.572111243084273,4.5116443066294325
10.702261306532664,21.045172805810655,6.490333134607355,4.996957746358151,4.673684006983298,4.574755876690239,4.512080588028772
10.802763819095478,21.501173325684665,6.552016390875961,5.013794202145072,4.679841905511273,4.57746957058149,4.51252916830066
10.903266331658292,21.965052517804523,6.614876201407285,5.031007105770602,4.686150794529416,4.5802533089290405,4.512990232251218
11.003768844221106,22.436875851507313,6.678919855420826,5.048599956281093,4.6926125303299155,4.583108078254405,4.513463967951283
11.10427135678392,22.91670898384017,6.744154592967982,5.066576217209497,4.699228962996929,4.5860348670702695,4.513950566519097
11.204773869346734,23.404617753643446,6.810587608195967,5.084939316579356,4.706001935956178,4.589034665542312,4.514450221922014
11.305276381909549,23.900668175776577,6.878226052527397,5.103692646957576,4.7129332855522,4.592108465170412,4.514963130795417
11.405778894472363,24.404926435488438,6.947077037753066,5.122839565552956,4.720024840651569,4.59525725848764,4.515489492277172
11.506281407035177,24.917458882933527,7.0171476390359295,5.142383394357597,4.7272784222705875,4.598482038775577,4.516029507856138
11.60678391959799,25.438332027834473,7.0884448978247825,5.162327420328465,4.7346958432260395,4.60178379979465,4.516583381233401
11.707286432160805,25.967612534290886,7.160975824676509,5.182674895606539,4.742278907807776,4.60516353552831,4.51715131819498
11.807788944723619,26.50536721573389,7.234747401986212,5.20342903777107,4.75002941147193,4.608622239939988,4.51773352649492
11.908291457286433,27.051663030025594,7.309766586624865,5.224593030126647,4.757949140553751,4.612160906741867,4.518330215747807
12.008793969849247,27.6065670747019,7.386040312484398,5.24617002202081,4.766039871999038,4.615780529174595,4.518941597329742
12.109296482412061,28.170146582357074,7.4635754929305165,5.268163129190118,4.7743033731133275,4.61948209979718,4.51956788428703
12.209798994974875,28.742468916168153,7.542379023163727,5.290575434132645,4.782741401327979,4.623266610286332,4.520209291251788
12.31030150753769,29.323601565556753,7.622457782489306,5.313409986504971,4.791355703982399,4.627135051244635,4.520866034363869
12.410804020100503,29.91361214198613,7.703818636497189,5.336669803541832,4.800148018121722,4.631088412016966,4.521538331198437
12.511306532663317,30.51256837489062,7.7864684391529035,5.360357870496662,4.809120070309275,4.635127680514653,4.522226400698716
12.611809045226131,31.120538107734863,7.870414034800841,5.38447714110135,4.818273576453231,4.639253843046872,4.52293046311337
12.712311557788945,31.73758929419997,7.955662260081334,5.409030538043612,4.827610241646877,4.643467884158907,4.523650739938106
12.81281407035176,32.36378999449353,8.042219945763131,5.434020953460422,4.837131760021966,4.647770786476847,4.524387453861076
12.913316582914574,32.999208371780625,8.130093918492927,5.459451249446051,4.846839814614667,4.652163530558394,4.52514082871174
13.013819095477388,33.64391268873266,8.219291002463756,5.485324258573292,4.856736077243632,4.656647094749475,4.525911089412846
13.114321608040202,34.29797130419094,8.309818021004123,5.51164278442656,4.866822208399747,4.66122245504635,4.526698461935233
13.214824120603016,34.961452669941906,8.401681798089783,5.538409602145526,4.877099857147147,4.6658905849629875,4.527503173255203
13.31532663316583,35.63442532760095,8.494889159780177,5.565627458978129,4.887570661035093,4.670652455403454,4.528325451314209
13.415829145728644,36.316957905601576,8.589446935581561,5.593299074841737,4.898236246020346,4.675509034539119,4.529165524980648
13.516331658291458,37.00911911628691,8.685361959738861,5.621427142891375,4.909098226399664,4.680461287690469,4.5300236240135545
13.616834170854272,37.710977753100565,8.782641072458382,5.650014330093931,4.920158204752091,4.68551017721338,4.530899979028033
13.717336683417086,38.422602687873635,8.881291121063457,5.679063277807355,4.931417771890688,4.690656662389656,4.531794821462252
13.8178391959799,39.144062868205104,8.981318961085147,5.708576602363833,4.942878506823413,4.695901699321715,4.532708383545871
13.918341708542714,39.87542731493247,9.082731457290087,5.738556895656078,4.954541976722813,4.701246240831284,4.533640898269751
14.018844221105528,40.61676511968989,9.18553548464763,5.769006725725793,4.9664097369042635,4.7066912363619675,4.53459259935685
14.119346733668342,41.36814544255094,9.289737929238308,5.799928637353538,4.978483330812437,4.71223763188559,4.535563721234189
14.219849246231156,42.12963750975326,9.39534568910576,5.831325152649174,4.99076429001575,4.717886369812213,4.536554499005791
14.32035175879397,42.901310611502325,9.50236567505411,5.863198771642123,5.003254134208483,4.723638388903711,4.537565168426508
14.420854271356784,43.68323409985177,9.610804811392857,5.895551972870791,5.015954371220355,4.729494624190849,4.5385959658766595
14.521356783919598,44.47547738665763,9.720670036631281,5.92838721397041,5.02886649703325,4.735456006893732,4.539647128337416
14.621859296482413,45.27810994160406,9.831968304124274,5.961706932258734,5.0419919958048665,4.741523464345616,4.540718893366852
14.722361809045227,46.09120129029799,9.94470658267158,5.995513545318938,5.055332339899055,4.74769791991994,4.541811499076627
14.82286432160804,46.91482101243048,10.058891857072307,6.029809451579198,5.068888989922569,4.753980292960556,4.542925184109238
14.923366834170855,47.74903874000233,10.174531128636511,6.064597030888397,5.082663394768035,4.76037149871508,4.544060187615784
15.023869346733669,48.59392415561177,10.29163141565576,6.099878645087476,5.096656991662874,4.766872448271295,4.545216749234222
15.124371859296483,49.44954699080212,10.410199753834322,6.135656638575971,5.110871206223972,4.773484048496566,4.546395109068069
15.224874371859297,50.315977024467145,10.530243196682775,6.171933338873272,5.1253074525178715,4.78020720198019,4.54759550766551
15.325376884422111,51.19328408131231,10.651768815875656,6.208711057174259,5.139967133126269,4.787042806978651,4.548818185998891
15.425879396984925,52.081538030369664,10.774783701574824,6.245992088898877,5.154851639216582,4.793991757363706,4.5500633854445605
15.52638190954774,52.98080878356468,10.899294962720049,6.283778714235342,5.169962350617424,4.801054942573278,4.551331347763055
15.626884422110553,53.89116629433319,11.025309727288418,6.322073198676646,5.18530063589873,4.808233247565075,4.552622315079579
15.727386934673367,54.81268055628639,11.152835142523998,6.36087779355008,5.200867852456359,4.815527552772925,4.553936529864778
15.827889447236181,55.745421601922466,11.281878375139206,6.400194736539468,5.2166653466009665,4.822938734065757,4.555274234915792
15.928391959798995,56.68945950138305,11.412446611489301,6.440026252199913,5.232694453650964,4.830467662709185,4.556635673337555
