tau,N_2,N_4,N_8,N_16
0.25,527.723288003289,527.7234112501734,527.7234189613026,527.7234194433765
0.35050251256281406,444.70705828251715,444.70747343341975,444.7074994340575,444.7075010599381
0.4510050251256281,405.0787412901776,405.07980134774056,405.07986782678574,405.0798719852595
0.5515075376884422,383.2114190887732,383.2136934242178,383.21383629011217,383.2138452305309
0.6520100502512562,369.947232024962,369.9515584543416,369.95183076442726,369.9518478138143
0.7525125628140703,361.33598398050185,361.3435189231384,361.3439942749629,361.3440240540672
0.8530150753768844,355.4485099286133,355.46077637423605,355.461552256088,355.4616008944756
0.9535175879396985,351.2545009572265,351.2734339993819,351.27463509821956,351.2747104485403
1.0540201005025125,348.1647558036878,348.19274549542536,348.1945269590678,348.1946388105489
1.1545226130653266,345.82343884078426,345.86337013425924,345.8659207837421,345.8660810748975
1.2550251256281406,344.00578798603266,344.0610775353686,344.0646230230522,344.0648460535659
1.3555276381909547,342.56436921513705,342.63899884687476,342.64380475593975,342.64410739768175
1.4560301507537687,341.3992916644675,341.4978383470765,341.50421322816544,341.50461513529655
1.556532663316583,340.44094287058516,340.5686050409866,340.57690338177184,340.5774271998885
1.657035175879397,339.63958783441313,339.80220796456933,339.81283308793024,339.8135046621852
1.7575376884422111,338.9588896544612,339.162972965427,339.17637985174775,339.1772284338634
1.8580402010050252,338.37175320714067,338.62448246251824,338.6411804914558,338.64223894552555
1.9585427135678393,337.8575897375833,338.16683607385136,338.18739168082755,338.18869668778586
2.059045226130653,337.4004757151887,337.7748054932206,337.79984473591475,337.80143699654604
2.159547738693467,336.9878889928655,337.4365666829355,337.46677771319935,337.4687021495526
2.2600502512562812,336.6098261538185,337.14281329499704,337.1789487318626,337.18125468694416
2.3605527638190953,336.25817661009035,336.88612691338096,336.9290061131676,336.9317475487902
2.4610552763819094,335.92627268127706,336.66052337337527,336.7110345932743,336.7142702859556
2.5615577889447234,335.6085621447969,336.4611216752358,336.5202241271444,336.5240178619539
2.6620603015075375,335.3003671648687,336.2838994230335,336.35262521478415,336.35704597705427
2.762562814070352,334.9977048679516,336.1255100776399,336.2049660391247,336.2100882039457
2.863065326633166,334.6971523840446,335.98314486175576,336.0745142537645,336.08041777319283
2.96356783919598,334.3957442770957,335.85442725601985,335.9589713598971,335.9657419478095
3.064070351758794,334.0908937871229,335.7373315219155,335.8563911084064,335.86412042293625
3.1645728643216082,333.7803317353379,335.6301191133349,335.7651157892274,335.77390161272115
3.2650753768844223,333.4620586466475,335.5312885393149,335.683725970718,335.6936723871498
3.3655778894472363,333.1343068487246,335.4395354429862,335.6110004543024,335.6222180240872
3.4660804020100504,332.79551016578074,335.3537205185593,335.54588406643023,335.55848999857335
3.5665829145728645,332.4442794419254,335.27284350287886,335.4874615245985,335.50157984612275
3.6670854271356785,332.0793825749223,335.1960219220865,335.43493605819594,335.45069778078647
3.7675879396984926,331.69972806588305,335.122473596847,335.38761178784335,335.40515507165094
3.8680904522613067,331.3043513286817,335.05150214615213,335.3448791034642,335.3643494180101
3.9685929648241207,330.8924031791066,334.98248490437595,335.30620245597584,335.3277527381016
4.069095477386934,330.4631400552458,334.9148627962999,335.27111010753856,335.2949009163459
4.169597989949748,330.0159156196224,334.84813181254,335.2391854830076,335.26538515173473
4.2701005025125625,329.55017346887547,334.78183580192626,335.210059839346,335.2388446241283
4.3706030150753765,329.0654407345746,334.7155603541575,335.183406026527,335.21496025199326
4.471105527638191,328.5613224035465,334.6489275899793,335.15893315737196,335.1934493590257
4.571608040201005,328.0374962211272,334.58159171044224,335.13638203807085,335.17406110141195
4.672110552763819,327.4937080683778,334.5132351838527,335.1155212381835,335.15657253452287
4.772613065326633,326.9297677262571,334.4435654705477,335.0961437004289,335.14078521935426
4.873115577889447,326.3455449572921,334.3723122028856,335.07806380782455,335.1265222862749
4.973618090452261,325.74096584939764,334.2992247517881,335.06111483967146,335.11362588757896
5.074120603015075,325.1160093778709,334.2240701225092,335.04514675921456,335.1019549816763
5.174623115577889,324.47070415079213,334.14663113158576,335.0300242850777,335.09138340101873
5.275125628140704,323.80512531051016,334.06670482455684,335.01562520619643,335.0817981634901
5.375628140703518,323.119391569925,333.98410110034234,335.0018389062697,335.07309799327874
5.476130653266332,322.4136623671473,333.89864151340726,334.98856506897465,335.0651920224824
5.576633165829146,321.6881351260409,333.8101582291938,334.97571253953913,335.0579986490391
5.67713567839196,320.9430426132985,333.7184931119467,334.9631983219017,335.0514445302161
5.777638190954774,320.1786503852006,333.62349692710967,334.95094669373117,335.04546369392955
5.878140703517588,319.39525431917906,333.52502864303875,334.9388884241375,335.0399967527318
5.978643216080402,318.5931782268435,333.4229548189412,334.9269600810635,335.03499020745187
6.0791457286432165,317.7727715463006,333.3171490677807,334.91510341716446,335.03039582930376
6.1796482412060305,316.9344071124746,333.20749158443596,334.9032648245287,335.0261701108119
6.280150753768845,316.0784790047761,333.0938687307222,334.8913948498989,335.0222737772199
6.380653266331659,315.2054004718995,332.9761726700038,334.8794477631687,335.018671351156
6.481155778894473,314.3156019338129,332.85430104508646,334.86738117288184,335.01533076428524
6.581658291457287,313.4095290611499,332.7281566938971,334.85515568327014,335.01222301048534
6.682160804020101,312.487640932265,332.59764739816563,334.84273458806587,335.00932183578595
6.782663316582915,311.55040826818095,332.46268566092755,334.83008359692235,335.00660346090433
6.883165829145729,310.59831174556837,332.3231885091895,334.8171705907914,335.0040463327293
6.983668341708543,309.6318403877589,332.17907731855456,334.8039654030518,335.0016309015492
7.084170854271357,308.65149003362893,332.03027765699176,334.79043962356866,334.99933942120487
7.184673366834171,307.6577618840013,331.87671914528204,334.776566423196,334.9971557696832
7.285175879396985,306.6511611250121,331.7183353319637,334.7623203965289,334.99506528795723
7.385678391959799,305.6321956276862,331.5550635808641,334.74767742095895,334.9930546351311
7.486180904522613,304.6013747227601,331.38684496953107,334.7326145303162,334.99111165817146
7.586683417085427,303.55920804959345,331.21362419707606,334.7171098015645,334.9892252746975
7.687185929648241,302.5062044778225,331.03534950011795,334.7011422531961,334.98738536747453
7.7876884422110555,301.4428711002341,330.85197257567006,334.68469175411457,334.9855826894032
7.88819095477387,300.36971229517206,330.6634485099514,334.667738941929,334.9838087779286
7.988693467336684,299.28722885664945,330.4697357122215,334.65026514969816,334.9820558779101
8.089195979899497,298.1959171902022,330.2707958528474,334.6322523402653,334.980316872094
8.18969849246231,297.0962685724139,330.06659380490754,334.6136830474162,334.97858521842244
8.290201005025125,295.9887684719423,329.85709758871764,334.5945403231713,334.97685489349294
8.390703517587939,294.87389592979804,329.6422783187444,334.5748076905978,334.9751203415544
8.491206030150753,293.7521229965692,329.42211015243527,334.55446910158685,334.9733764284871
8.591708542713567,292.6239142242318,329.1965702405567,334.533508899102,334.97161840027394
8.692211055276381,291.48972621015946,328.9656386786822,334.5119117834517,334.96984184551826
8.792713567839195,290.35000719092557,328.7292984595237,334.4896627821876,334.9680426616096
8.89321608040201,289.20519668348715,328.4875354258397,334.4667472232662,334.96621702417934
8.993718592964823,288.05572517134584,328.24033822369177,334.44315071115193,334.96436135952234
9.094221105527637,286.90201383330316,327.9876982558571,334.4188591055695,334.96247231969727
9.194723618090451,285.7444743124492,327.72960963523315,334.393858502642,334.96054676004064
9.295226130653266,284.5835085230693,327.46606913809995,334.3681352181796,334.958581718863
9.39572864321608,283.4195084931897,327.1970761571259,334.3416757729043,334.9565743991122
9.496231155778894,282.25285624054214,326.9226326540311,334.31446687941866,334.95452215181473
9.596733668341708,281.08392367978115,326.642743111834,334.28649543074516,334.95242246112207
9.697236180904522,279.9130725588512,326.35741448663134,334.2577484902792,334.95027293080625
9.797738693467336,278.74065442247013,326.06665615887107,334.2282132830149,334.94807127206565
9.89824120603015,277.56701060076267,325.7704798840957,334.19787718791514,334.94581529251315
9.998743718592964,276.3924722211534,325.4688997431424,334.1667277313112,334.9435028862337
10.099246231155778,275.21736024170224,325.1619320917993,334.134752581228,334.9411320248075
10.199748743718592,274.04198550414253,324.849595509924,334.10193954254,334.93870074920596
10.300251256281408,272.8666488049593,324.53191075004077,334.06827655287356,334.9362071624771
10.400753768844222,271.69164098292225,324.20890068543923,334.03375167917784,334.933649423143
10.501256281407036,270.5172430215652,323.8805902578023,333.9983531148959,334.9310257392428
10.60175879396985,269.343726165182,323.5470064243976,333.9620691776725,334.9283343629569
10.702261306532664,268.17135204698235,323.2081781048713,333.9248883075413,334.92557358575925
10.802763819095478,267.0003728281279,322.8641361276851,333.88679906554097,334.922741734045
10.903266331658292,265.8310313464405,322.5149131762419,333.8477901327128,334.91983716518826
11.003768844221106,264.66356127364566,322.1605437347487,333.80785030943844,334.9168582639897
11.10427135678392,263.49818728008603,321.8010640338641,333.7669685150791,334.9138034394762
11.204773869346734,262.3351252059028,321.4365119961824,333.725133787882,334.9106711220174
11.305276381909549,261.17458223775145,321.0669271816066,333.6823352851229,334.90745976073123
11.405778894472363,260.0167570901803,320.69235073266196,333.6385622834563,334.9041678211493
11.506281407035177,258.86184019085766,320.3128253198029,333.59380417944755,334.9007937831172
11.60678391959799,257.7100138688967,319.9283950867667,333.5480504902647,334.89733613890775
11.707286432160805,256.5614525455754,319.5391055960254,333.5012908545076,334.8937933915267
11.807788944723619,255.41632292680868,319.14500377438907,333.45351503315675,334.8901640531922
11.908291457286433,254.2747841967753,318.7461378588099,333.40471291062363,334.8864466439719
12.008793969849247,253.13698821215146,318.34255734243885,333.3548744958877,334.8826396905624
12.109296482412061,252.0030796964487,317.9343129209823,333.303989923706,334.87874172519696
12.209798994974875,250.87319643399647,317.52145643940736,333.2520494558812,334.8747512846699
12.31030150753769,249.7474694631503,317.10404083904143,333.1990434825794,334.8706669094663
12.410804020100503,248.62602326834372,316.68212010511087,333.14496252368394,334.86648714298724
12.511306532663317,247.50897597064005,316.2557492147615,333.08979723017876,334.8622105308603
12.611809045226131,246.39643951647275,315.82498408560286,333.0335383855507,334.85783562032856
12.712311557788945,245.28851986429515,315.38988152481403,332.97617690720347,334.8533609597104
12.81281407035176,244.18531716888953,314.95049917885086,332.91770384787793,334.84878509792196
12.913316582914574,243.08692596311525,314.5068954837883,332.8581103970693,334.84410658405847
13.013819095477388,241.99343533689864,314.05912961633265,332.79738788243935,334.83932396702636
13.114321608040202,240.90492911329486,313.6072614455357,332.7355277712146,334.8344357952239
13.214824120603016,239.82148602147137,313.15135148523905,332.67252167156926,334.8294406162636
13.31532663316583,238.7431798664859,312.6914608472792,332.60836133398647,334.8243369767333
13.415829145728644,237.67007969574996,312.2276511954767,332.54303865259544,334.8191234219923
13.516331658291458,236.60224996208703,311.7599847004355,332.47654566648043,334.81379849599904
13.616834170854272,235.53975068331124,311.28852399517285,332.40887456095845,334.8083607411673
13.717336683417086,234.4826375982677,310.8133321316011,332.3400176688241,334.80280869824793
13.8178391959799,233.43096231928897,310.33447253788006,332.2699674715573,334.7971409062341
13.918341708542714,232.3847724810357,309.85200897665464,332.198716600494,334.7913559022882
14.018844221105528,231.34411188570138,309.3660055041951,332.12625783795545,334.7854522216863
14.119346733668342,230.30902064457092,308.8765264304499,332.052584118337,334.7794283977817
14.219849246231156,229.27953531593255,308.38363628002594,331.97768852915254,334.7732829619827
14.32035175879397,228.25568903935343,307.8873997541014,331.901564312035,334.76701444374504
14.420854271356784,227.23751166633403,307.3878816932841,331.8242048636912,334.76062137057676
14.521356783919598,226.2250298873666,306.8851470414173,331.7456037368091,334.7541022680549
14.621859296482413,225.2182673554275,306.37926081034124,331.66575464091903,334.74745565985245
14.722361809045227,224.21724480594023,305.87028804561135,331.58465144320525,334.7406800677745
14.82286432160804,223.22198017325016,305.3582937931773,331.5022881692698,334.7337740118029
14.923366834170855,222.23248870365748,304.8433430670219,331.4186590038459,334.7267360101488
15.023869346733669,221.24878306505795,304.3255008177603,331.33375829146314,334.7195645793117
15.124371859296483,220.27087345324588,303.80483190219724,331.2475805370613,334.71225823414505
15.224874371859297,219.2987676949346,303.2814010538392,331.1601204065549,334.7048154879274
15.325376884422111,218.3324713475554,302.75527285435817,331.07137272734695,334.6972348524382
15.425879396984925,217.37198779589468,302.22651170600045,330.98133248879276,334.68951483803846
15.52638190954774,216.41731834563427,301.69518180493594,330.8899948426133,334.68165395375553
15.626884422110553,215.46846231385842,301.16134711553906,330.79735510325787,334.67365070737134
15.727386934673367,214.5254171165943,300.6250713455947,330.70340874821767,334.665503605514
15.827889447236181,213.58817835345266,300.08641792241934,330.60815141828806,334.65721115375254
15.928391959798995,212.65673988943655,299.5454499698886,330.51157891778263,334.64877185669377
16.02889447236181,211.73109393398582,299.00223028635907,330.41368721469655,334.6401842180819
16.12939698492462,210.81123111732592,298.4568213234759,330.31447244082165,334.6314467409001
16.229899497487438,209.89714056418927,297.90928516585154,330.2139308918127,334.62255792747425
16.33040201005025,208.98880996497763,297.3596835116057,330.11205902720496,334.6135162795775
16.430904522613066,208.0862256444326,296.80807765375187,330.0088534703839,334.6043202985372
16.531407035175878,207.1893726278828,296.25452846241797,329.90431100850833,334.5949684853425
16.631909547738694,206.29823470513315,295.69909636788736,329.7984285923854,334.58545934075346
16.732412060301506,205.41279449206417,295.1418413444447,329.69120333629996,334.5757913654109
16.832914572864322,204.533033490005,294.58282289501386,329.5826325177979,334.5659630599469
16.933417085427134,203.65893214294584,294.0221000365713,329.47271357742403,334.5559729250968
17.03391959798995,202.79046989265262,293.45973128632056,329.36144411841536,334.5458194618104
17.134422110552762,201.92762523174727,292.895774648612,329.24882190635054,334.5355011713654
17.234924623115578,201.07037575481405,292.3302876025921,329.13484486875535,334.5250165554799
17.33542713567839,200.21869820759338,291.76332709056635,329.01951109466563,334.5143641164257
17.435929648241206,199.3725685343215,291.19494950705973,328.9028188341481,334.5035423571421
17.53643216080402,198.5319619232746,290.6252106885589,328.7847664977798,334.49254978134917
17.636934673366834,197.69685285057378,290.05416590391843,328.6653526560863,334.4813848936621
17.737437185929647,196.8672151223067,289.4818698454169,328.5445760389405,334.47004619970494
17.837939698492463,196.04302191501986,288.9083766204443,328.42243553492085,334.4585322062242
17.938442211055275,195.224245814635,288.3337397438059,328.29893019063314,334.44684142120326
18.03894472361809,194.41085885384095,287.7580121306252,328.17405920999147,334.4349723539753
18.139447236180903,193.60283254801135,287.1812460898302,328.04782195346473,334.42292351533774
18.23994974874372,192.80013792969774,286.6034933182063,327.92021793728475,334.4106934176652
18.34045226130653,192.00274558174573,286.02480489499936,327.7912468326199,334.39828057502245
18.440954773869347,191.21062566908083,285.44523127705423,327.6609084647135,334.3856835032782
18.54145728643216,190.42374796920888,284.86482229447034,327.5292028119876,334.3729007202167
18.641959798994975,189.64208190147647,284.2836271467605,327.3961300051144,334.3599307456509
18.742462311557787,188.86559655513253,283.70169439949643,327.2616903260542,334.3467721015339
18.842964824120603,188.09426071623378,283.1190719814251,327.1258842070619,334.33342331207075
18.943467336683415,187.32804289343449,282.5358071820412,326.9887122296626,334.31988290382975
19.04396984924623,186.5669113426991,281.9519466495992,326.85017512359707,334.30614940585326
19.144472361809044,185.81083409097633,281.3675363895526,326.71027376573693,334.29222134976766
19.24497487437186,185.05977895887182,280.78262176340183,326.5690091789727,334.2780972698937
19.34547738693467,184.3137135823545,280.19724748793976,326.4263825310725,334.2637757033556
19.445979899497488,183.57260543353178,279.6114576348778,326.2823951335145,334.2492551901901
19.5464824120603,182.83642184052735,279.02529563084056,326.1370484402934,334.23453427345504
19.646984924623116,182.10513000649374,278.43880425771306,325.9903440467003,334.2196114993365
19.747487437185928,181.3786970277914,277.85202565332906,325.8422836880788,334.20448541725693
19.847989949748744,180.65708991136484,277.26500131248497,325.6928692385571,334.1891545799814
19.948492462311556,179.94027559134517,276.67777208826783,325.54210270975665,334.17361754372405
20.048994974874372,179.22822094490792,276.09037819368376,325.38998624947874,334.1578728682532
20.149497487437184,178.52089280741347,275.50285920357453,325.2365221403692,334.1419191169968
20.25,177.81825798685685,274.9152540568091,325.0817127985627,334.12575485714643
