tau,N_256
0.25,36.255801494393936
0.35050251256281406,26.071068652567714
0.4510050251256281,20.502928112104307
0.5515075376884422,17.03271166507547
0.6520100502512562,14.692337772181562
0.7525125628140703,13.029041859385808
0.8530150753768844,11.802092569722221
0.9535175879396985,10.87135918374924
1.0540201005025125,10.149628666668256
1.1545226130653266,9.579797585158767
1.2550251256281406,9.122982403409194
1.3555276381909547,8.751879105271264
1.4560301507537687,8.446838824746852
1.556532663316583,8.193437148190895
1.657035175879397,7.980908491938283
1.7575376884422111,7.801104238742044
1.8580402010050252,7.647780337918733
1.9585427135678393,7.516099073592753
2.059045226130653,7.402274024837736
2.159547738693467,7.303313084137999
2.2600502512562812,7.216830003287411
2.3605527638190953,7.140904656797243
2.4610552763819094,7.073978443061062
2.5615577889447234,7.014775338853462
2.6620603015075375,6.962241876082737
2.762562814070352,6.915501198040566
2.863065326633166,6.8738176702786635
2.96356783919598,6.83656945512449
3.064070351758794,6.803227129395639
3.1645728643216082,6.773336911824607
3.2650753768844223,6.746507423765067
3.3655778894472363,6.722399170718295
3.4660804020100504,6.700716128714653
3.5665829145728645,6.681198966702857
3.6670854271356785,6.6636195467812
3.7675879396984926,6.647776427712196
3.8680904522613067,6.633491160535515
3.9685929648241207,6.620605213273712
4.069095477386934,6.608977398451144
4.169597989949748,6.598481705211021
4.2701005025125625,6.589005459313042
4.3706030150753765,6.580447750802011
4.471105527638191,6.572718081847303
4.571608040201005,6.565735197066433
4.672110552763819,6.559426066247219
4.772613065326633,6.553724995292157
4.873115577889447,6.5485728458208445
4.973618090452261,6.543916347482753
5.074120603015075,6.5397074898826455
5.174623115577889,6.535902983279535
5.275125628140704,6.5324637790209605
5.375628140703518,6.529354642119669
5.476130653266332,6.5265437695479145
5.576633165829146,6.524002448775475
5.67713567839196,6.521704751857427
5.777638190954774,6.519627261022294
5.878140703517588,6.517748822247932
5.978643216080402,6.516050323762737
6.0791457286432165,6.514514496790345
6.1796482412060305,6.513125736179623
6.280150753768845,6.5118699388390375
6.380653266331659,6.51073435813327
6.481155778894473,6.509707472606891
6.581658291457287,6.508778867580033
6.682160804020101,6.507939128318582
6.782663316582915,6.507179743619799
6.883165829145729,6.506493018776291
6.983668341708543,6.505871996989069
7.084170854271357,6.505310388396178
7.184673366834171,6.504802505968323
7.285175879396985,6.504343207598791
7.385678391959799,6.503927843782501
7.486180904522613,6.503552210339575
7.586683417085427,6.50321250569288
7.687185929648241,6.502905292257589
7.7876884422110555,6.502627461544353
7.88819095477387,6.502376202616783
7.988693467336684,6.502148973579152
8.089195979899497,6.5019434758018555
8.18969849246231,6.501757630620667
8.290201005025125,6.501589558271488
8.390703517587939,6.501437558845413
8.491206030150753,6.501300095069781
8.591708542713567,6.501175776739695
8.692211055276381,6.50106334664142
8.792713567839195,6.500961667824419
8.89321608040201,6.50086971209257
8.993718592964823,6.50078654959758
9.094221105527637,6.500711339428887
9.194723618090451,6.5006433211045005
9.295226130653266,6.500581806876419
9.39572864321608,6.500526174772554
9.496231155778894,6.500475862304606
9.596733668341708,6.500430360778092
9.697236180904522,6.500389210146852
9.797738693467336,6.500351994359896
9.89824120603015,6.500318337153461
9.998743718592964,6.500287898245637
10.099246231155778,6.50026036989506
10.199748743718592,6.500235473788776
10.300251256281408,6.500212958227837
10.400753768844222,6.500192595582077
10.501256281407036,6.500174179988354
10.60175879396985,6.5001575252689445
10.702261306532664,6.500142463049028
10.802763819095478,6.500128841054221
10.903266331658292,6.500116521570934
11.003768844221106,6.50010538005397
11.10427135678392,6.500095303867289
11.204773869346734,6.5000861911452
11.305276381909549,6.500077949762455
11.405778894472363,6.500070496402831
11.506281407035177,6.500063755716792
11.60678391959799,6.500057659559694
11.707286432160805,6.500052146302838
11.807788944723619,6.500047160210409
11.908291457286433,6.500042650875992
12.008793969849247,6.500038572712974
12.109296482412061,6.50003488449367
12.209798994974875,6.5000315489325216
12.31030150753769,6.50002853230916
12.410804020100503,6.5000258041274925
12.511306532663317,6.500023336807411
12.611809045226131,6.500021105405962
12.712311557788945,6.500019087365184
12.81281407035176,6.5000172622840635
12.913316582914574,6.500015611712286
13.013819095477388,6.500014118963714
13.114321608040202,6.500012768947701
13.214824120603016,6.500011548016532
13.31532663316583,6.500010443827455
13.415829145728644,6.5000094452178985
13.516331658291458,6.500008542092633
13.616834170854272,6.500007725321706
13.717336683417086,6.500006986648148
13.8178391959799,6.500006318604503
13.918341708542714,6.500005714437329
14.018844221105528,6.500005168038933
14.119346733668342,6.500004673885625
14.219849246231156,6.50000422698187
14.32035175879397,6.5000038228098
14.420854271356784,6.500003457283529
14.521356783919598,6.500003126707852
14.621859296482413,6.500002827740892
14.722361809045227,6.500002557360309
14.82286432160804,6.5000023128327555
14.923366834170855,6.5000020916862375
15.023869346733669,6.500001891685124
15.124371859296483,6.500001710807553
15.224874371859297,6.500001547224984
15.325376884422111,6.500001399283718
15.425879396984925,6.500001265488177
15.52638190954774,6.500001144485787
15.626884422110553,6.500001035053303
15.727386934673367,6.500000936084444
15.827889447236181,6.500000846578706
15.928391959798995,6.500000765631253
16.02889447236181,6.500000692423765
16.12939698492462,6.5000006262161705
16.229899497487438,6.500000566339159
16.33040201005025,6.500000512187416
16.430904522613066,6.50000046321351
16.531407035175878,6.50000041892235
16.631909547738694,6.500000378866185
16.732412060301506,6.500000342640077
16.832914572864322,6.500000309877807
16.933417085427134,6.500000280248171
17.03391959798995,6.5000002534516375
17.134422110552762,6.500000229217312
17.234924623115578,6.5000002073002054
17.33542713567839,6.500000187478748
17.435929648241206,6.500000169552563
17.53643216080402,6.500000153340429
17.636934673366834,6.500000138678453
17.737437185929647,6.500000125418413
17.837939698492463,6.500000113426262
17.938442211055275,6.500000102580766
18.03894472361809,6.500000092772284
18.139447236180903,6.5000000839016625
18.23994974874372,6.500000075879226
18.34045226130653,6.500000068623869
18.440954773869347,6.5000000620622504
18.54145728643216,6.500000056128035
18.641959798994975,6.5000000507612326
18.742462311557787,6.500000045907589
18.842964824120603,6.500000041518035
18.943467336683415,6.500000037548199
19.04396984924623,6.5000000339579485
19.144472361809044,6.500000030710987
19.24497487437186,6.500000027774489
19.34547738693467,6.500000025118773
19.445979899497488,6.500000022716987
19.5464824120603,6.500000020544854
19.646984924623116,6.5000000185804145
19.747487437185928,6.50000001680381
19.847989949748744,6.500000015197077
19.948492462311556,6.500000013743977
20.048994974874372,6.500000012429817
20.149497487437184,6.5000000112413145
20.25,6.5000000101664535
