tau,N_15
0.25,26.125446584674066
0.35050251256281406,20.81680180930583
0.4510050251256281,18.040434651027706
0.5515075376884422,16.395690439828908
0.6520100502512562,15.345128028812166
0.7525125628140703,14.63894545669061
0.8530150753768844,14.146022727301695
0.9535175879396985,13.791593178475136
1.0540201005025125,13.53042080597203
1.1545226130653266,13.333897165184583
1.2550251256281406,13.1832938821372
1.3555276381909547,13.066001745361197
1.4560301507537687,12.973328180627382
1.556532663316583,12.899156083227906
1.657035175879397,12.839101084487211
1.7575376884422111,12.789968072539
1.8580402010050252,12.749392868875004
1.9585427135678393,12.71560137259571
2.059045226130653,12.687244840312133
2.159547738693467,12.663285444513033
2.2600502512562812,12.642915595354408
2.3605527638190953,12.625500284540815
2.4610552763819094,12.610535350893448
2.5615577889447234,12.597616904036345
2.6620603015075375,12.58641866629241
2.762562814070352,12.576675000686997
2.863065326633166,12.568168068461157
2.96356783919598,12.560718017934713
3.064070351758794,12.554175421368308
3.1645728643216082,12.548415395094299
3.2650753768844223,12.543332991652004
3.3655778894472363,12.538839561511521
3.4660804020100504,12.534859859946632
3.5665829145728645,12.531329731015209
3.6670854271356785,12.528194241774266
3.7675879396984926,12.525406170175732
3.8680904522613067,12.522924772607858
3.9685929648241207,12.52071477390848
4.069095477386934,12.518745535399619
4.169597989949748,12.516990366164487
4.2701005025125625,12.515425950191235
4.3706030150753765,12.514031867712339
4.471105527638191,12.512790193491881
4.571608040201005,12.51168515826299
4.672110552763819,12.510702862223914
4.772613065326633,12.509831031635025
4.873115577889447,12.5090588112501
4.973618090452261,12.508376586661718
5.074120603015075,12.50777583171765
5.174623115577889,12.507248977030196
5.275125628140704,12.5067892962984
5.375628140703518,12.506390807728089
5.476130653266332,12.50604818829406
5.576633165829146,12.505756698963665
5.67713567839196,12.505512119307815
5.777638190954774,12.50531069017762
5.878140703517588,12.505149063332869
5.978643216080402,12.505024257080516
6.0791457286432165,12.504933617124065
6.1796482412060305,12.504874781943737
6.280150753768845,12.504845652126598
6.380653266331659,12.504844363149017
6.481155778894473,12.50486926118402
6.581658291457287,12.504918881564937
6.682160804020101,12.504991929586888
6.782663316582915,12.505087263370035
6.883165829145729,12.505203878544597
6.983668341708543,12.505340894548516
7.084170854271357,12.505497542355137
7.184673366834171,12.505673153470886
7.285175879396985,12.505867150062553
7.385678391959799,12.50607903609067
7.486180904522613,12.506308389340171
7.586683417085427,12.50655485425216
7.687185929648241,12.506818135471784
7.7876884422110555,12.507097992036842
7.88819095477387,12.50739423214025
7.988693467336684,12.50770670840688
8.089195979899497,12.508035313631893
8.18969849246231,12.508379976933334
8.290201005025125,12.508740660276958
8.390703517587939,12.509117355335633
8.491206030150753,12.50951008064973
8.591708542713567,12.509918879058354
8.692211055276381,12.510343815374528
8.792713567839195,12.51078497428004
8.89321608040201,12.511242458418398
8.993718592964823,12.511716386666267
9.094221105527637,12.51220689256602
9.194723618090451,12.51271412290359
9.295226130653266,12.513238236417502
9.39572864321608,12.513779402626351
9.496231155778894,12.514337800763279
9.596733668341708,12.51491361880709
9.697236180904522,12.515507052600757
9.797738693467336,12.51611830504888
9.89824120603015,12.516747585386595
9.998743718592964,12.517395108513076
10.099246231155778,12.518061094383517
10.199748743718592,12.51874576745402
10.300251256281408,12.51944935617439
10.400753768844222,12.520172092524357
10.501256281407036,12.520914211589064
10.60175879396985,12.521675951170254
10.702261306532664,12.522457551429683
10.802763819095478,12.523259254561925
10.903266331658292,12.524081304493684
11.003768844221106,12.524923946607302
11.10427135678392,12.525787427486142
11.204773869346734,12.52667199467993
11.305276381909549,12.527577896488154
11.405778894472363,12.528505381759972
11.506281407035177,12.529454699709097
11.60678391959799,12.530426099742312
11.707286432160805,12.531419831300461
11.807788944723619,12.53243614371077
11.908291457286433,12.533475286049502
12.008793969849247,12.534537507014123
12.109296482412061,12.53562305480407
12.209798994974875,12.536732177009474
12.31030150753769,12.537865120507112
12.410804020100503,12.539022131363021
12.511306532663317,12.540203454741224
12.611809045226131,12.541409334818086
12.712311557788945,12.542640014701815
12.81281407035176,12.543895736356745
12.913316582914574,12.545176740532037
13.013819095477388,12.546483266694413
13.114321608040202,12.547815552964702
13.214824120603016,12.549173836057856
13.31532663316583,12.550558351226218
13.415829145728644,12.551969332205832
13.516331658291458,12.553407011165561
13.616834170854272,12.554871618658835
13.717336683417086,12.556363383577889
13.8178391959799,12.557882533110307
13.918341708542714,12.559429292697725
14.018844221105528,12.561003885996625
14.119346733668342,12.562606534841011
14.219849246231156,12.56423745920696
14.32035175879397,12.565896877178892
14.420854271356784,12.567585004917454
14.521356783919598,12.56930205662903
14.621859296482413,12.571048244536694
14.722361809045227,12.572823778852595
14.82286432160804,12.574628867751729
14.923366834170855,12.576463717346993
15.023869346733669,12.578328531665493
15.124371859296483,12.580223512626072
15.224874371859297,12.58214886001799
15.325376884422111,12.584104771480709
15.425879396984925,12.586091442484795
15.52638190954774,12.588109066313812
15.626884422110553,12.590157834047291
15.727386934673367,12.592237934544618
15.827889447236181,12.594349554429916
15.928391959798995,12.596492878077834
16.02889447236181,12.59866808760023
16.12939698492462,12.600875362833749
16.229899497487438,12.603114881328235
16.33040201005025,12.605386818335958
16.430904522613066,12.607691346801703
16.531407035175878,12.610028637353578
16.631909547738694,12.612398858294648
16.732412060301506,12.614802175595308
16.832914572864322,12.617238752886363
16.933417085427134,12.619708751452862
17.03391959798995,12.622212330228619
17.134422110552762,12.624749645791413
17.234924623115578,12.627320852358881
17.33542713567839,12.629926101785042
17.435929648241206,12.632565543557485
17.53643216080402,12.635239324795174
17.636934673366834,12.637947590246865
17.737437185929647,12.640690482290138
17.837939698492463,12.643468140931006
17.938442211055275,12.646280703804102
18.03894472361809,12.649128306173436
18.139447236180903,12.652011080933693
18.23994974874372,12.654929158612074
18.34045226130653,12.657882667370666
18.440954773869347,12.660871733009332
18.54145728643216,12.663896478969082
18.641959798994975,12.666957026335972
18.742462311557787,12.670053493845446
18.842964824120603,12.673185997887167
18.943467336683415,12.676354652510328
19.04396984924623,12.67955956942935
19.144472361809044,12.682800858030085
19.24497487437186,12.6860786253764
19.34547738693467,12.68939297621719
19.445979899497488,12.692744012993813
19.5464824120603,12.696131835847883
19.646984924623116,12.699556542629479
19.747487437185928,12.703018228905721
19.847989949748744,12.706516987969708
19.948492462311556,12.710052910849802
20.048994974874372,12.713626086319278
20.149497487437184,12.717236600906292
20.25,12.720884538904176
