tau,N_2,N_4,N_6,N_8,N_10,N_16
0.25,13.789545892282792,13.78956402058215,13.789564992968927,13.789565156676597,13.789565201421684,13.789565227730671
0.35050251256281406,10.462276331582242,10.462330170033368,10.462333065150789,10.46233355280415,10.462333686115429,10.4623337645078
0.4510050251256281,8.665834153326209,8.66595785556038,8.665964529680986,8.665965654606527,8.665965962205192,8.665966143112112
0.5515075376884422,7.5612262317944765,7.561470047881255,7.561483256765771,7.561485484940116,7.561486094393087,7.561486452893917
0.6520100502512562,6.82648005135252,6.8269136061011775,6.826937209426892,6.826941194876592,6.826942285371929,6.82694292697774
0.7525125628140703,6.3114621262189985,6.312177675573011,6.312216852185103,6.312223474644535,6.312225287428855,6.312226354271298
0.8530150753768844,5.936710431672931,5.937825940212911,5.937887407718041,5.9378978115431655,5.937900660756666,5.93790233803027
0.9535175879396985,5.6562404283496885,5.657902335336978,5.65799456852267,5.658010202017673,5.658014485705761,5.658017008237206
1.0540201005025125,5.441622606782349,5.4440081783587955,5.444141622099066,5.444164276605376,5.44417048773824,5.444174146586888
1.1545226130653266,5.274368681233556,5.277687877472308,5.277875150951174,5.277906999238437,5.277915736621409,5.277920885645458
1.2550251256281406,5.141968952149522,5.146465766189524,5.146721856291207,5.1467654899530615,5.14677746895471,5.146784531303288
1.3555276381909547,5.035686474328225,5.041639724978139,5.041982167483655,5.042040633166215,5.042056696224822,5.0420661707358905
1.4560301507537687,4.949260054754608,4.956983633206206,4.957432680991442,4.957509515367599,4.957530642259495,4.957543109756818
1.556532663316583,4.878106246022349,4.8879488320286,4.888527609809747,4.888626873263365,4.888654191129972,4.888670320620161
1.657035175879397,4.818809350968743,4.831153624799838,4.831888270167818,4.832014579176572,4.832049372313379,4.83206992708762
1.7575376884422111,4.768784889051194,4.784046273605687,4.784966064183448,4.7851246223963955,4.785168341808525,4.785194185454419
1.8580402010050252,4.726051426447007,4.744676399811953,4.745813866401149,4.74601049440419,4.746064767132006,4.746096869460051
1.9585427135678393,4.6890722743700595,4.71153629744472,4.712927323034023,4.7131684867888755,4.713235125004459,4.713274567892135
2.059045226130653,4.656643482026352,4.683448588906453,4.685132493413757,4.685425331347479,4.6855063412199405,4.6855543243745
2.159547738693467,4.627813236331733,4.659485337201025,4.6615049478282184,4.661857296542646,4.661954886867573,4.662012733507001
2.2600502512562812,4.601823006430446,4.6389089538295725,4.641310660926688,4.64173107949152,4.641847670077769,4.641916832527978
2.3605527638190953,4.578064010323811,4.621128479917612,4.6239622782841545,4.624460071073971,4.6245983008794385,4.624680366084717
2.4610552763819094,4.556044643301861,4.605666879682693,4.608986395276647,4.6095716333108205,4.609734368317838,4.609831063260879
2.5615577889447234,4.535365852941849,4.5921363296308115,4.595998831707858,4.5966823724527455,4.596872713273272,4.596985910300604
2.6620603015075375,4.515702341775036,4.580219382473822,4.584685781238131,4.585479286832824,4.585700576033434,4.585832298081917
2.762562814070352,4.496788087586995,4.569654492968158,4.574789322879274,4.575705276749147,4.575961105886005,4.576113531605917
2.863065326633166,4.4784050919858736,4.560224812983615,4.5660962019292715,4.567147923755311,4.567442140109662,4.567617608880019
2.96356783919598,4.46037456290371,4.551749457688652,4.558429082299038,4.559630741315249,4.559967454320505,4.560168471152354
3.064070351758794,4.442549946359172,4.544076654063853,4.551639681507502,4.553006308103309,4.553389895455417,4.553619135779071
3.1645728643216082,4.424811373545659,4.537078333469277,4.545603350133076,4.547150845742557,4.547585959186019,4.547846273518411
3.2650753768844223,4.407061198790682,4.530645839365152,4.540214766880244,4.541959912144933,4.54245148292759,4.54274590141619
3.3655778894472363,4.38922038416924,4.524686501519493,4.535384500650182,4.5373449618472215,4.537898205837607,4.538229942677609
3.4660804020100504,4.371225545825523,4.519120887400439,4.531036250364148,4.5332305840964295,4.5338510065582955,4.534223464280048
3.5665829145728645,4.353026521149487,4.513880585718099,4.527104617550571,4.529552273700381,4.530245673719665,4.5306624473435395
3.6670854271356785,4.334584348958982,4.508906410327876,4.523533299948809,4.5262546229011225,4.527027097461379,4.527491978517564
3.7675879396984926,4.315869579678668,4.50414693784478,4.5202736195147315,4.523289847660861,4.524147795363836,4.5246647757747365
3.8680904522613067,4.296860851295006,4.499557311442485,4.517283317332172,4.520616580868759,4.521566705297446,4.522139981120595
3.9685929648241207,4.277543681139268,4.495098257945865,4.514525562563745,4.518198879606231,4.5192481923283765,4.51988216735798
4.069095477386934,4.257909434436196,4.4907352765870545,4.511968133830451,4.516005404864073,4.517161228074697,4.517860517300083
4.169597989949748,4.237954438888767,4.486437966506094,4.5095827401151265,4.514008740810186,4.51527870961223,4.516048142531671
4.2701005025125625,4.217679220970332,4.482179466849116,4.5073444550515385,4.512184827473182,4.513576891795957,4.514421515584459
4.3706030150753765,4.1970878445286335,4.4779359886067285,4.505231243745595,4.510512485991615,4.512034912147207,4.512959994677032
4.471105527638191,4.176187336121561,4.473686421486077,4.5032235654211705,4.50897301972442,4.510634391602702,4.511645424315476
4.571608040201005,4.1549871844658455,4.469412002381504,4.501304038449957,4.507549877784817,4.509359097688187,4.510461798317592
4.672110552763819,4.133498903687722,4.465096034598074,4.499457156909846,4.50622837014486,4.5081946592642375,4.509394974408386
4.772613065326633,4.111735651871189,4.460723649039967,4.497669049870081,4.5049954255113605,4.507128324045424,4.508432431588095
4.873115577889447,4.08971189782114,4.456281600217547,4.495927276239602,4.503839384811865,4.50614875173188,4.50756306311192
4.973618090452261,4.067443130084277,4.451758091241714,4.494220649326404,4.502749824440638,4.505245836903659,4.506776999231909
5.074120603015075,4.044945603168168,4.447142623031058,4.49253908630967,4.5017174044683355,4.5044105568819015,4.506065454905132
5.174623115577889,4.022236116620288,4.442425863809938,4.4908734786762885,4.500733737868736,4.503634840610563,4.505420598521932
5.275125628140704,3.9993318232142023,4.437599535665725,4.489215580361095,4.499791277503472,4.502911455300008,4.504835438395704
5.375628140703518,3.9762500629698,4.432656315494,4.487557910888719,4.498883218164063,4.502233908132093,4.5043037243138535
5.476130653266332,3.953008220132017,4.427589748117297,4.485893671269866,4.498003411425352,4.501596360781214,4.50381986190451
5.576633165829146,3.9296236005657557,4.422394169736328,4.484216670776813,4.497146291436249,4.500993554877517,4.5033788379452995
5.67713567839196,3.906113327307396,4.41706464017885,4.482521263027927,4.49630681007855,4.500420746843396,4.5029761550453475
5.777638190954774,3.882494252255768,4.411596882663152,4.480802290061976,4.495480380175384,4.499873650785121,4.502607774382478
5.878140703517588,3.858782882195922,4.405987230000889,4.47905503329009,4.494662825637844,4.499348388328483,4.502270065384554
5.978643216080402,3.8349953175333407,4.400232576335875,4.477275170384766,4.493850337609674,4.498841444458618,4.501959761415243
6.0791457286432165,3.8111472022793,4.394330333657983,4.47545873730778,4.493039435812252,4.498349628566551,4.501673920666801
6.1796482412060305,3.787253683973345,4.388278392449963,4.473602094797529,4.492226934410613,4.497870040023474,4.501409891581045
6.280150753768845,3.7633293823591334,4.38207508592385,4.471701898735608,4.4914099118203925,4.4974000377029535,4.50116528221872
6.380653266331659,3.7393883657473537,4.375719157386385,4.469755073895616,4.49058568395861,4.4969372129542045,4.500937933080577
6.481155778894473,3.7154441341057334,4.369209730342152,4.467758790647175,4.489751780511097,4.496479365599546,4.5007258929533265
6.581658291457287,3.6915096080126366,4.362546281001375,4.4657104442472555,4.488905923848307,4.49602448258798,4.500527397412533
6.682160804020101,3.667597122698472,4.355728612908359,4.463607636400876,4.488046010271136,4.495570718986777,4.500340849664405
6.782663316582915,3.6437184264790723,4.348756833447847,4.461448158815732,4.487170093310675,4.49511638103524,4.500164803450783
6.883165829145729,3.6198846829578923,4.341631332021583,4.459229978511509,4.48627636884197,4.4946599110208725,4.499997947777641
6.983668341708543,3.5961064764401987,4.3343527597169045,4.456951224675491,4.485363161802533,4.494199873768972,4.499839093258211
7.084170854271357,3.5723938200626777,4.326922010314262,4.454610176882648,4.4844289143328515,4.493734944563014,4.49968715988821
7.184673366834171,3.548756166196776,4.3193402025019205,4.452205254521116,4.483472175178732,4.493263898335882,4.499541166093319
7.285175879396985,3.5252024187338384,4.311608663184128,4.449735007283635,4.482491590214873,4.49278559999148,4.499400218908537
7.385678391959799,3.5017409469053082,4.303728911784503,4.447198106602504,4.481485893965967,4.49229899573317,4.4992635051659695
7.486180904522613,3.4783796003321217,4.295702645459469,4.444593337920342,4.480453902016236,4.491803105290069,4.499130283582164
7.586683417085427,3.455125725034382,4.287531725147785,4.441919593701722,4.479394504211014,4.491297014944958,4.498999877648833
7.687185929648241,3.4319861801657336,4.279218162391724,4.439175867101926,4.478306658565121,4.4907798712786,4.4988716692418755
7.7876884422110555,3.408967355266837,4.270764106873626,4.436361246218837,4.477189385802364,4.490250875554939,4.498745092873233
7.88819095477387,3.3860751878593245,4.262171834618447,4.433474908862486,4.47604176445906,4.489709278680107,4.498619630518607
7.988693467336684,3.3633151812257376,4.25344373681888,4.430516117784289,4.474862926491848,4.489154376675578,4.498494806961453
8.089195979899497,3.340692422242582,4.244582309244675,4.427484216314642,4.473652053336625,4.488585506612352,4.498370185600225
8.18969849246231,3.3182115991528773,4.235590142202053,4.424378624363286,4.4724083723712145,4.488002042958768,4.498245364671525
8.290201005025125,3.2958770191817686,4.226469911012862,4.421198834742044,4.47113115373944,4.487403394299663,4.498119973846984
8.390703517587939,3.2736926259139554,4.217224366986156,4.417944409774068,4.469819707498785,4.486789000389042,4.497993671166087
8.491206030150753,3.251662016365234,4.2078563288576385,4.414614978157721,4.468473381057867,4.48615832950245,4.497866140271202
8.591708542713567,3.229788457692308,4.198368674674618,4.4112102320568445,4.4670915568734,4.485510876058716,4.497737087914553
8.692211055276381,3.2080749034955405,4.1887643341061125,4.40772992439227,4.46567365037957,4.484846158483914,4.4976062417100735
8.792713567839195,3.186524009678533,4.179046281159342,4.404173866312321,4.464219108125508,4.4841637172931765,4.497473348105777
8.89321608040201,3.165138149836439,4.169217527285279,4.400541924822489,4.4627274060990265,4.483463113368473,4.497338170554867
8.993718592964823,3.1439194301519877,4.159281114857166,4.3968340205567795,4.46119804821711,4.482743926412705,4.497200487865964
9.094221105527637,3.1228697037842457,4.149240111006816,4.393050125675141,4.459630564965527,4.482005753562429,4.497060092714825
9.194723618090451,3.1019905847404683,4.139097601804549,4.389190261873233,4.4580245121718285,4.481248208143345,4.496916790301727
9.295226130653266,3.0812834612258824,4.128856686769228,4.385254498492329,4.456379469897546,4.480470918554216,4.496770397140231
9.39572864321608,3.0607495084701712,4.118520473695593,4.381242950718596,4.454695041436826,4.47967352726637,4.496620739964519
9.496231155778894,3.0403897010327037,4.108092073786624,4.37715577786223,4.452970852410093,4.478855689927166,4.496467654743728
9.596733668341708,3.020204824591371,4.097574597079154,4.372993181708093,4.451206549942414,4.478017074556993,4.496310985792856
9.697236180904522,3.000195487222211,4.08697114815139,4.368755404930446,4.4494018019173245,4.4771573608303665,4.496150584970881
9.797738693467336,2.980362130178955,4.076284822101389,4.364442729565335,4.447556296297814,4.476276239432643,4.495986310957604
9.89824120603015,2.960705038183217,4.065518700785854,4.360055475534935,4.445669740506983,4.475373411484703,4.495818028601598
9.998743718592964,2.9412243492373262,4.0546758493089685,4.355593999218909,4.44374186086167,4.474448588028671,4.495645608332367
10.099246231155778,2.9219200639728298,4.043759312751226,4.351058692068445,4.441772402053005,4.47350148956847,4.4954689256305125
10.199748743718592,2.9027920545484394,4.032772113128534,4.346449979259214,4.439761126668507,4.472531845659567,4.4952878605502935
10.300251256281408,2.8838400731118354,4.021717246572047,4.341768318379989,4.437707814750815,4.471539394542855,4.495102297289522
10.400753768844222,2.8650637598400683,4.010597680719524,4.3370141981541375,4.43561226338876,4.470523882818069,4.494912123802218
10.501256281407036,2.8464626505736157,3.9994163523091255,4.3321881371915225,4.433474286336806,4.46948506515263,4.4947172314499095
10.60175879396985,2.828036184059237,3.98817616496689,4.327290682768791,4.43129371365942,4.468422704022158,4.49451751468783
10.702261306532664,2.8097837088167936,3.9768799871792737,4.322322409636262,4.429070391397204,4.467336569479328,4.494312870782669
10.802763819095478,2.791704489645115,3.965530650442407,4.317283918849923,4.426804181251987,4.466226438947971,4.49410319955882
10.903266331658292,2.773797713781852,3.9541309475799045,4.312175836627307,4.424494960288424,4.46509209703974,4.493888403170375
11.003768844221106,2.756062496732003,3.9426836312212967,4.306998813226179,4.422142620649805,4.463933335390819,4.493668385896395
11.10427135678392,2.738497887779552,3.931191412433362,4.301753521845177,4.419747069286166,4.462749952516463,4.4934430539572
11.204773869346734,2.721102875196307,3.9196569594968493,4.296440657545709,4.417308227692857,4.461541753681361,4.4932123153496555
11.305276381909549,2.703876391161709,3.9080828968213,4.291060936194534,4.414826031658087,4.460308550783972,4.492976079699624
11.405778894472363,2.686817316406947,3.8964718039908877,4.285615093426563,4.412300431017988,4.459050162253233,4.49273425812992
11.506281407035177,2.6699244845963586,3.8848262149344177,4.280103883627549,4.409731389418025,4.457766412956143,4.492486763142258
11.60678391959799,2.6531966864586494,3.8731486172128355,4.274528078936369,4.4071188840796465,4.456457134114887,4.49223350851188
11.707286432160805,2.6366326736800345,3.861441451417807,4.268888468266723,4.404462905571253,4.455122163232307,4.491974409193581
11.807788944723619,2.6202311625709784,3.8497071106751513,4.263185856348108,4.401763457582635,4.453761344024653,4.491709381238062
11.908291457286433,2.6039908375177756,3.837947940247137,4.25742106278596,4.399020556702185,4.452374526360609,4.49143834171761
12.008793969849247,2.5879103542297535,3.8261662372278074,4.2515949211409305,4.396234232196236,4.450961566205755,4.491161208660178
12.109296482412061,2.571988342792472,3.8143642503257973,4.245708278027259,4.393404525790022,4.44952232557166,4.490877900991061
12.209798994974875,2.5562234105368553,3.802544179729235,4.239761992230258,4.3905314914497735,4.44805667246891,4.490588338481416
12.31030150753769,2.5406141447337474,3.7907081770475646,4.233756933842905,4.387615195165579,4.446564480863425,4.490292441702981
12.410804020100503,2.5251591151230164,3.7788583453253333,4.227693983421596,4.384655714734681,4.445045630635516,4.489990131988345
12.511306532663317,2.509856876285881,3.766996739123172,4.22157403116106,4.381653139544943,4.443500007541166,4.489681331396265
12.611809045226131,2.494705969868763,3.7551253646613962,4.2153979760884965,4.378607570358263,4.4419275031750765,4.4893659626815
12.712311557788945,2.4797049266666003,3.743246180021866,4.209166725276958,4.3755191190937754,4.440328014935088,4.489043949268734
12.81281407035176,2.4648522685731415,3.7313610954039085,4.202881193077993,4.372387908610685,4.438701445987601,4.48871521523017
12.913316582914574,2.4501465104054434,3.7194719734303203,4.196542300373586,4.369214072490666,4.437047705233682,4.488379685266432
13.013819095477388,2.4355861616093937,3.7075806294996148,4.190150973847386,4.365997754819736,4.435366707275583,4.488037284690451
13.114321608040202,2.421169727852786,3.6956888321809025,4.183708145275237,4.36273910996959,4.433658372383396,4.4876879394140134
13.214824120603016,2.4068957125121395,3.6837983036479147,4.177214750834975,4.3594383023783685,4.431922626461653,4.487331575936725
13.31532663316583,2.3927626180591486,3.6719107201488903,4.1706717304354735,4.356095506330867,4.430159401015647,4.486968121337117
13.415829145728644,2.378768947352349,3.6600277125091925,4.1640800270648874,4.352710905738247,4.428368633117333,4.486597503265706
13.516331658291458,2.364913204839324,3.6481508666636704,4.157440586158033,4.349284693917244,4.426550265370633,4.486219649939758
13.616834170854272,2.3511938976744777,3.6362817242159573,4.1507543549828165,4.3458170733689965,4.424704245876045,4.485834490139631
13.717336683417086,2.3376095367571614,3.62442178302203,4.1440222820456425,4.3423082555575,4.422830528194424,4.485441953206478
13.8178391959799,2.324158637694693,3.612572497795506,4.137245316515646,4.338758460687838,4.420929071309848,4.485041969041204
13.918341708542714,2.310839721694556,3.6007352807322732,4.130424407667676,4.335167917484235,4.418999839591504,4.484634468104496
14.018844221105528,2.2976513163898624,3.588911502152224,4.123560504343835,4.331536862968047,4.417042802754509,4.484219381417861
14.119346733668342,2.2845919566019397,3.577102491155943,4.116654554433444,4.327865542235817,4.41505793581962,4.483796640565498
14.219849246231156,2.2716601850436864,3.5653095362943645,4.109707504371267,4.324154208237472,4.413045219071808,4.483366177696961
14.32035175879397,2.2588545529671715,3.553533886249499,4.102720298653761,4.320403121554796,4.411004638017629,4.48292792553047
14.420854271356784,2.246173620758745,3.5417767505244715,4.095693879373207,4.316612550180315,4.408936183341413,4.482481817356834
14.521356783919598,2.2336159584847644,3.5300393001412163,4.088629185769455,4.312782769296673,4.406839850860203,4.482027787043879
14.621859296482413,2.221180146390868,3.5183226683442452,4.081527153799085,4.308914061056659,4.404715641477499,4.4815657690413255
14.722361809045227,2.2088647753575734,3.5066279513090786,4.074388715721725,4.305006714363993,4.4025635611357465,4.481095698386056
14.82286432160804,2.1966684473148255,3.494956208853936,4.067214799703283,4.301061024654984,4.400383620767614,4.480617510707711
14.923366834170855,2.1845897756179693,3.4833084651534434,4.06000632943582,4.297077293681199,4.3981758362460495,4.480131142234571
15.023869346733669,2.172627385387496,3.4716857094531717,4.052764223773803,4.2930558292932535,4.39594022833314,4.479636529799661
15.124371859296483,2.160779913814787,3.4600888967839083,4.045489396386441,4.288996945225836,4.393676822627793,4.4791336108470725
15.224874371859297,2.149046010435934,3.4485189486746326,4.038182755425826,4.284900960884096,4.391385649512245,4.4786223234384215
15.325376884422111,2.137424337375627,3.4369767538632674,4.030845203210576,4.2807682011315045,4.38906674409746,4.478102606259442
15.425879396984925,2.125913569562975,3.425463169004331,4.023477635924672,4.276598996079282,4.386720146167402,4.477574398626657
15.52638190954774,2.1145123949210176,3.4139790193726656,4.01608094333119,4.272393680877537,4.3843459001222485,4.477037640494143
15.626884422110553,2.1032195145316073,3.402525099562531,4.00865600850059,4.2681525955081785,4.38194405492056,4.476492272460305
15.727386934673367,2.0920336427772206,3.391102174181362,4.001203707553281,4.263876084579733,4.379514664020447,4.475938235774678
15.827889447236181,2.0809535074611922,3.3797109785375734,3.9937249094160867,4.259564497124144,4.377057785319776,4.475375472344737
15.928391959798995,2.069977849907771,3.368352219321852,3.9862204755923356,4.255218186395673,4.374573481095438,4.474803924742664
