tau,N_2,N_4,N_6,N_8,N_10,N_16
0.25,8.603800275134354,8.603799857147871,8.603799834770546,8.603799831004604,8.603799829975427,8.60379982937035
0.35050251256281406,6.351131657344307,6.351130520730376,6.351130459838939,6.351130449589965,6.351130446788935,6.35113044514209
0.4510050251256281,5.120334996400326,5.1203326173361665,5.120332489767313,5.12033246829163,5.120332462421966,5.120332458970801
0.5515075376884422,4.352368820151233,4.352364563968534,4.3523643354873816,4.352364297014887,4.352364286498837,4.35236428031544
0.6520100502512562,3.832814078458166,3.8328072254278336,3.8328068570457243,3.8328067949994864,3.8328067780381145,3.8328067680642888
0.7525125628140703,3.4617505838522193,3.461740356942222,3.4617398063410607,3.461739713574786,3.4617396882126377,3.4617396732978336
0.8530150753768844,3.186313458961355,3.186299051901268,3.186298274882026,3.1862981439217113,3.1862981081126334,3.1862980870525703
0.9535175879396985,2.9759018713003975,2.975882475415133,2.9758814272948286,2.9758812505720433,2.9758812022427428,2.9758811738166995
1.0540201005025125,2.811571042161844,2.81154587067313,2.8115445075666785,2.8115442776329123,2.811544214741375,2.811544177746481
1.1545226130653266,2.680964626345911,2.680932935145427,2.6809312150843656,2.680930924798484,2.6809308453850984,2.680930798666347
1.2550251256281406,2.5756815899849657,2.575642694217493,2.575640578074736,2.575640220758435,2.5756401229884203,2.5756400654635887
1.3555276381909547,2.48981397388602,2.4897672600075453,2.4897647122140936,2.4897642817730374,2.489764163969558,2.4897640946486703
1.4560301507537687,2.4190897323893545,2.41903466565422,2.4190316547087045,2.4190311457195444,2.419031006387552,2.4190309243869126
1.556532663316583,2.3603471358118906,2.3602832633750035,2.360279762159046,2.3602791699245147,2.360279007765935,2.3602789123170833
1.657035175879397,2.3111999629344906,2.3111269129196823,2.3111228988407277,2.311122219416491,2.311122033337737,2.31112192379192
1.7575376884422111,2.2698171297670173,2.269734606750316,2.269730061738845,2.269729291936659,2.269729081049738,2.2697289568786183
1.8580402010050252,2.234773455486546,2.2346812328799626,2.2346761432700712,2.234675280642169,2.2346750442607073,2.2346749050541113
1.9585427135678393,2.204946051006607,2.20484396081536,2.2048383171371286,2.2048373599466777,2.2048370975782032,2.2048369430396706
2.059045226130653,2.179440783812736,2.179328704190064,2.179322500899602,2.1793214480816667,2.1793211594173494,2.179320989358215
2.159547738693467,2.1575390626541076,2.1574169036067925,2.157410138776004,2.1574089898928195,2.15740867479573,2.157408489128343
2.2600502512562812,2.1386586560217986,2.138526343538628,2.138519018522224,2.1385177737158507,2.1385174322085723,2.138517230939146
2.3605527638190953,2.1223243972452925,2.1221818560402,2.1221739751328057,2.122172635077461,2.12217226732969,2.1221720505511774
2.4610552763819094,2.108145980742049,2.1079931157311735,2.1079846858229567,2.107983251678583,2.1079828579951587,2.107982625880386
2.5615577889447234,2.095800927750746,2.0956376043230467,2.095628634558359,2.095627107926352,2.0956266887359765,2.095626441531211
2.6620603015075375,2.085021376535046,2.08484739963193,2.084837901072236,2.084836283953706,2.084835839798463,2.084835577817473
2.762562814070352,2.0755837399119303,2.0753988319031835,2.0753888171930126,2.075387111949538,2.075386643475221,2.0753863670938384
2.863065326633166,2.0673005384794636,2.06710431580963,2.0670937988425253,2.0670920081590625,2.06709151610622,2.0670912257573573
2.96356783919598,2.060013902691275,2.0598058512707227,2.059794846850987,2.059792973700402,2.0597924588959775,2.059792155065023
3.064070351758794,2.053590367491859,2.0533698168174896,2.053358340312979,2.0533563879215686,2.0533558512709713,2.0533555344914753
3.1645728643216082,2.047916676823267,2.047682772832645,2.0476708398137013,2.0476688116270507,2.0476682541064886,2.0476679249560434
3.2650753768844223,2.0428963833151768,2.0426480600019903,2.0426356858618244,2.0426335855103663,2.0426330081592905,2.042632667255513
3.3655778894472363,2.038447078499198,2.038183028345145,2.038170227897399,2.0381680591611304,2.0381674630746445,2.038167111071189
3.4660804020100504,2.0344981261267927,2.03421676943301,2.0342035564828254,2.0342013232546976,2.034200709575824,2.034200347158358
3.5665829145728645,2.0309887991894353,2.030688252417852,2.030674639303394,2.030672345551029,2.030671715462748,2.0306713433448387
3.6670854271356785,2.0278667425332046,2.0275447857933377,2.0275307828953943,2.0275284326208585,2.027527787337857,2.0275274062567554
3.7675879396984926,2.025086699290726,2.0247407431295157,2.0247263583473964,2.024723955544868,2.024723296304983,2.0247229070172756
3.8680904522613067,2.022609451982636,2.022236503653346,2.0222217418458546,2.0222192904571172,2.022218618512455,2.0222182217895934
3.9685929648241207,2.0204009389816524,2.0199975683822706,2.019982430773017,2.0199799346407623,2.0199792512485164,2.0199788478722405
4.069095477386934,2.018431514753077,2.017993820234965,2.0179783037816335,2.0179757666006295,2.017975073013627,2.017974663771295
4.169597989949748,2.0166753283803307,2.0161989026341427,2.016182999361649,2.0161804246278643,2.0161797220848805,2.016179307764745
4.2701005025125625,2.0151097997221448,2.0145896959504914,2.014573392248158,2.0145707832059427,2.0145700729218396,2.0145696543082985
4.3706030150753765,2.013715176407637,2.013145874992873,2.0131291508758835,2.0131265104633504,2.0131257936190776,2.0131253714879396
4.471105527638191,2.012474157968401,2.011849533839679,2.0118323621751566,2.0118296929678556,2.011828970700388,2.0118285458141836
4.571608040201005,2.0113715758953865,2.010684866792071,2.0106672124901186,2.010664516643145,2.010663790035378,2.010663363138759
4.672110552763819,2.0103941204180624,2.0096378962372143,2.009619715407259,2.0096169945958557,2.009616264666531,2.0096158364817844
4.772613065326633,2.0095301064319027,2.00869623983614,2.0086774789088624,2.0086747342676032,2.0086740019612805,2.008673573183986
4.873115577889447,2.0087692723238217,2.00784891077292,2.0078295055879853,2.007826737648561,2.0078260038256714,2.007825575120531
4.973618090452261,2.0081026065241208,2.0070861458794957,2.0070660207392392,2.0070632293668518,2.007062494793862,2.0070620667907146
5.074120603015075,2.0075221974952715,2.006399257331402,2.0063783240205435,2.0063755083488855,2.006374773688569,2.0063743469786046
5.174623115577889,2.0070211035903243,2.0057805043314727,2.0057586611028864,2.0057558194676357,2.0057550852694623,2.005754660401651
5.275125628140704,2.006593239807093,2.0052229817916714,2.005200112318166,2.0051972421889137,2.005196508879549,2.005196086357277
5.375628140703518,2.0062332789527177,2.0047205235115144,2.00469649580358,2.0046935937140593,2.0046928615879573,2.0046924418658754
5.476130653266332,2.005936565136165,2.0042676177546737,2.0042422830441002,2.0042393445205886,2.0042386137306507,2.0042381972117314
5.576633165829146,2.005699037839442,2.0038593334588093,2.0038325250481255,2.003829544535834,2.0038288150841175,2.0038284021169
5.67713567839196,2.0055171650943655,2.003491255590236,2.003462787667922,2.0034597584551963,2.003459030183619,2.003458621059642
5.777638190954774,2.005387884521013,2.0031594283848397,2.003129094806332,2.003126008946462,2.003125281527471,2.0031248764788634
5.878140703517588,2.0053085511747706,2.002860305408146,2.002827878442708,2.002824726673131,2.00282399960029,2.002823598797509
5.978643216080402,2.005276891307985,2.0025907055273,2.0025559345709367,2.0025527062296082,2.002551978808052,2.0025515823577433
6.0791457286432165,2.005290961285268,2.0023477740215365,2.002310384276221,2.002307067214934,2.002306338551637,2.0023059464945914
6.1796482412060305,2.005349111002862,2.002128948169988,2.0020886392896,2.002085219784015,2.0020844887778204,2.002084101087007
6.280150753768845,2.005449951256029,2.001931926750119,2.0018883714536067,2.001884834109771,2.001884099441126,2.001883716019775
6.380653266331659,2.005592324577126,2.0017546429596726,2.001707485612118,2.001703813269246,2.001703073389585,2.001702694069288
6.481155778894473,2.005775279133401,2.00159524034236,2.001544095504752,2.001540269134043,2.001539522254768,2.001539146793578
6.581658291457287,2.005998045329671,2.001452051354536,2.0013965023032148,2.0013925009025035,2.0013917449834993,2.0013913730640023
6.682160804020101,2.0062600148086025,2.0013235782586065,2.0012631754755055,2.0012589759595434,2.0012582086971737,2.001257839924499
6.782663316582915,2.006560721581713,2.0012084760701847,2.001142735705156,2.001138312791321,2.001137531605861,2.0011371655056167
6.883165829145729,2.0068998250586176,2.001105537321342,2.001033939627986,2.0010292657172557,2.001028467739699,2.0010281037557953
6.983668341708543,2.0072770947714407,2.0010136784324666,2.0009356661790725,2.000930711232086,2.0009298932902757,2.000929530782626
7.084170854271357,2.0076923966164357,2.000931927511251,2.000846904368568,2.0008416357766277,2.000840794380677,2.000840432622741
7.184673366834171,2.008145680456454,2.0008594134196445,2.0007667423273823,2.000761124778254,2.0007602561051963,2.0007598942813507
7.285175879396985,2.0086369689464716,2.000795355968926,2.0006943574829865,2.000688352821387,2.000687452699016,2.000687089901736
7.385678391959799,2.0091663474603987,2.000739057119763,2.0006290077423605,2.000622574825009,2.000621638714874,2.0006212739416935
7.486180904522613,2.00973395501126,2.000689893078599,2.0005700235735238,2.0005631181186803,2.0005621410981913,2.000561773248439
7.586683417085427,2.0103399760688614,2.0006473071943653,2.0005168008897667,2.000509375321174,2.0005083520647817,2.0005079799360606
7.687185929648241,2.0109846331895027,2.0006108035704737,2.0004687946516335,2.000460797936805,2.000459722696225,2.0004593449806323
7.7876884422110555,2.011668180381433,2.0005799413167047,2.0004255131113595,2.0004168905941646,2.0004157571776116,2.000415372457679
7.88819095477387,2.012390897137708,2.0005543293740082,2.0003865126328546,2.0003772058603766,2.0003760076107824,2.000375614355117
7.988693467336684,2.013153083075108,2.0005336218526493,2.0003513930277372,2.000341339571382,2.0003400693435647,2.0003396659021906
8.089195979899497,2.0139550531239436,2.0005175138306437,2.0003197933544055,2.000308926625262,2.0003075767620335,2.000307161361406
8.18969849246231,2.0147971332189636,2.000505737565163,2.000291388132879,2.0002796371913507,2.0002781994985237,2.000277770236223
8.290201005025125,2.0156796564464297,2.0004980590746815,2.000265883933205,2.000253173292929,2.0002516390132175,2.0002511938522956
8.390703517587939,2.0166029596066326,2.000494275054099,2.0002430162996974,2.000229265725795,2.0002276255115836,2.000227162274564
8.491206030150753,2.0175673801549308,2.0004942100890912,2.0002225469772483,2.0002076712789614,2.000205915163926,2.0002054315264477
8.591708542713567,2.0185732534877627,2.0004977141394433,2.0002042614094786,2.000188170227254,2.0001862875968226,2.000185781080911
8.692211055276381,2.0196209105430984,2.0005046602642778,2.0001879664816316,2.0001705640687293,2.0001685436293655,2.0001680115963385
8.792713567839195,2.020710675687492,2.0005149425648954,2.0001734884838855,2.0001546734826037,2.000152503229905,2.0001519428728916
8.89321608040201,2.0218428648643405,2.0005284743234233,2.0001606712732762,2.0001403364858814,2.000138003671481,2.0001374120075575
8.993718592964823,2.023017783980129,2.0005451863177175,2.0001493746146077,2.000127406769091,2.0001248978663555,2.000124271728282
9.094221105527637,2.024235727507415,2.0005650252949363,2.0001394726827346,2.000115752193505,2.000113052862017,2.000112388889584
9.194723618090451,2.025496977285115,2.0005879525879973,2.0001308527103707,2.000105253434015,2.000102348482841,2.000101643113808
9.295226130653266,2.026801801498243,2.0006139428607166,2.0001234137671475,2.000095802753403,2.0000926761031352,2.0000919255637593
9.39572864321608,2.028150453820763,2.000642982968866,2.0001170656570992,2.0000873028951682,2.000083937538749,2.0000831378338995
9.496231155778894,2.029543172706517,2.000675070925663,2.000111727922997,2.00007966608338,2.000076044045685,2.000075190948547
9.596733668341708,2.030980180814469,2.000710214961357,2.0001073289471223,2.0000728131191097,2.0000689154153135,2.0000680044566654
9.697236180904522,2.0324616845555603,2.0007484326676135,2.0001038051390827,2.000066672564093,2.000062479156804,2.0000615056138664
9.797738693467336,2.033987873749559,2.0007897502183236,2.000101100202204,2.0000611800031383,2.0000566697583024,2.0000556286431626
9.89824120603015,2.035558921381185,2.0008342016593033,2.000099164470875,2.0000562773776656,2.0000514280192476,2.0000503140668515
9.998743718592964,2.0371749834456683,2.000881828260104,2.000097954311932,2.000051912383488,2.0000467004469313,2.000045508102635
10.099246231155778,2.038836198874701,2.000932677921813,2.000097431583895,2.00004803792663,2.0000424387110978,2.000041162117783
10.199748743718592,2.040542689534458,2.0009868046353585,2.000097563148431,2.000044611631576,2.000038599150981,2.0000372321357274
10.300251256281408,2.0422945602880502,2.001044267985363,2.0000983204289784,2.0000415953968953,2.0000351423297205,2.0000336783900283
10.400753768844222,2.044091899115382,2.001105132695087,2.0000996790119747,2.0000389549936677,2.0000320326315904,2.0000304649211627
10.501256281407036,2.045934777283967,2.001169468208447,2.0001016182865476,2.0000366597025985,2.000029237897923,2.0000275592119863
10.60175879396985,2.047823249564785,2.0012373483055175,2.000104121118942,2.0000346819860866,2.000026729097995,2.000024931858172
10.702261306532664,2.049757354487751,2.0013088507482326,2.0001071735583253,2.0000329971918944,2.0000244800315197,2.0000225562702454
10.802763819095478,2.0517371146318135,2.001384056953399,2.0001107645709153,2.000031583285366,2.00002246705971,2.0000204084041813
10.903266331658292,2.0537625369451313,2.00146305169037,2.0001148857996904,2.0000304206074633,2.0000206688621613,2.0000184665178313
11.003768844221106,2.0558336130911563,2.001545922801019,2.000119531347202,2.0000294916561296,2.0000190662170754,2.0000167109506797
11.10427135678392,2.057950319816812,2.0016327609398896,2.000124697579234,2.0000287808887416,2.0000176418025912,2.0000151239247055
11.204773869346734,2.060112619339281,2.001723659332609,2.000130382947292,2.0000282745436286,2.0000163800171906,2.0000136893643226
11.305276381909549,2.062320459748238,2.0018187135508483,2.000136587828086,2.000027960478821,2.000015266817352,2.0000123927335585
11.405778894472363,2.064573775420634,2.001918021302279,2.0001433143783474,2.0000278280263792,2.000014289570801,2.000011220888831
11.506281407035177,2.0668724874454094,2.0020216822341617,2.0001505664034887,2.0000278678608012,2.000013436923854,2.00001016194582
11.60678391959799,2.069216504055746,2.002129797749291,2.00015834923875,2.0000280718801675,2.0000126986815188,2.000009205159084
11.707286432160805,2.0716057210667107,2.0022424708332127,2.0001666696416116,2.000028433098787,2.000012065699112,2.0000083408132032
11.807788944723619,2.0740400223163338,2.0023598058916923,2.0001755356943627,2.000028945550251,2.0000115297843073,2.0000075601243457
11.908291457286433,2.076519280108366,2.002481908597546,2.000184956715831,2.0000296041998875,2.0000110836086007,2.0000068551512475
12.008793969849247,2.079043355655135,2.002608885746024,2.0001949431813726,2.0000304048657203,2.0000107206273046,2.0000062187147254
12.109296482412061,2.08161209951908,2.0027408451180344,2.0002055066503,2.0000313441471076,2.0000104350072405,2.0000056443248817
12.209798994974875,2.0842253520517033,2.0028778953505553,2.0002166597000155,2.000032419360329,2.000010221561404,2.000005126115286
12.31030150753769,2.0868829438288086,2.003020145813656,2.0002284158661774,2.000033628480448,2.000010075689929,2.0000046587834506
12.410804020100503,2.0895846960810283,2.0031677064936217,2.0002407895883096,2.0000349700888513,2.000009993326752,2.0000042375370053
12.511306532663317,2.092330421118755,2.003320687881705,2.0002537961602904,2.000036443325912,2.0000099708914236,2.000003858045022
12.611809045226131,2.09511992275071,2.003479200868102,2.0002674516852488,2.0000380478482875,2.000010005245586,2.0000035163940026
12.712311557788945,2.0979529966954633,2.0036433566407763,2.0002817730344082,2.000039783790407,2.0000100936536573,2.000003209048075
12.81281407035176,2.100829430985335,2.0038132665888044,2.0002967778094876,2.0000416517297332,2.0000102337473304,2.000002932812999
12.913316582914574,2.103749006362171,2.0039890422099456,2.0003124843082896,2.0000436526554566,2.0000104234935154,2.0000026848036243
13.013819095477388,2.1067114966645644,2.004170795022173,2.0003289114931504,2.0000457879402607,2.0000106611653967,2.0000024624144537
13.114321608040202,2.1097166692061817,2.004358636478931,2.0003460789619614,2.0000480593148846,2.0000109453163106,2.0000022632930348
13.214824120603016,2.112764285144891,2.0045526778879026,2.000364006921486,2.0000504688452017,2.000011274756163,2.000002085315892
13.31532663316583,2.1158540998424624,2.004753030333103,2.0003827161627368,2.00005301891157,2.0000116485301622,2.000001926566768
13.415829145728644,2.118985863214662,2.004959804600136,2.0004022280381974,2.0000557121902327,2.000012065899626,2.0000017853169463
13.516331658291458,2.1221593200716065,2.0051731111044413,2.0004225644406874,2.0000585516365783,2.000012526324672,2.0000016600074604
13.616834170854272,2.125374210448287,2.0053930598224268,2.0004437477837005,2.00006154047006,2.0000130294486183,2.0000015492330077
13.717336683417086,2.1286302699252087,2.0056197602253345,2.0004658009830454,2.000064682160631,2.0000135750839156,2.0000014517274023
13.8178391959799,2.1319272299391345,2.00585332121575,2.0004887474396646,2.0000679804165333,2.000014163199476,2.000001366350426
13.918341708542714,2.1352648180839466,2.0060938510666477,2.0005126110234843,2.0000714391733156,2.000014793909262,2.0000012920759387
14.018844221105528,2.138642758401667,2.0063414573628875,2.0005374160581835,2.00007506258395,2.0000154674620085,2.0000012279811266
14.119346733668342,2.1420607716637052,2.0065962469450724,2.000563187306789,2.0000788550099426,2.0000161842319772,2.0000011732367855
14.219849246231156,2.145518575642433,2.0068583258557053,2.000589949957985,2.0000828210133483,2.000016944710638,2.000001127098535
14.32035175879397,2.1490158853731782,2.007127799287568,2.00061772961307,2.0000869653495714,2.000017749499195,2.000001088898875
14.420854271356784,2.1525524134067853,2.0074047715342624,2.0006465522734707,2.000091292960909,2.000018599301866,2.000001058040011
14.521356783919598,2.1561278700528685,2.0076893459428646,2.0006764443287546,2.000095808970732,2.0000194949198558,2.0000010339873606
14.621859296482413,2.159741963613928,2.00798162486862,2.000707432545081,2.000100518678254,2.0000204372459427,2.0000010162636888
14.722361809045227,2.1633944006104833,2.0082817096316545,2.0007395440540257,2.0001054275538204,2.0000214272596275,2.000001004443811
14.82286432160804,2.1670848859974075,2.0085897004756346,2.00077280634175,2.000110541234672,2.000022466022793,2.0000009981498006
14.923366834170855,2.1708131233716497,2.0089056965283434,2.0008072472384453,2.0001158655211237,2.0000235546758156,2.000000997046662
15.023869346733669,2.1745788151715297,2.009229795764131,2.0008428949080446,2.0001214063731148,2.0000246944340856,2.000001000838419
15.124371859296483,2.178381662867806,2.009562094968189,2.000879777838139,2.0001271699071026,2.000025886584916,2.0000010092645812
15.224874371859297,2.1822213671467217,2.009902689702629,2.000917924830091,2.0001331623932472,2.0000271324847683,2.0000010220969564
15.325376884422111,2.1860976280852262,2.010251674274312,2.0009573649892998,2.0001393902528637,2.0000284335567944,2.000001039136764
15.425879396984925,2.190010145318584,2.010609141704399,2.0009981277156155,2.000145860056109,2.000029791288647,2.000001060212036
15.52638190954774,2.1939586182005764,2.010975183699594,2.00104024269386,2.0001525785198795,2.0000312072305415,2.0000010851752634
15.626884422110553,2.1979427459565093,2.011349890625031,2.0010837398844536,2.000159552505889,2.0000326829935333,2.000001113901279
