tau,N_2,N_4,N_6,N_8,N_10,N_16
0.25,8.603831636956592,8.60380181931142,8.603800222433472,8.60379995367189,8.603799880221526,8.603799837037558
0.35050251256281406,6.351220695096774,6.351136096993231,6.3511315617410435,6.351130798284999,6.351130589623205,6.351130466938322
0.4510050251256281,5.120530737071217,5.12034489249574,5.1203349160090745,5.120333236138024,5.120332776963773,5.12033250697135
0.5515075376884422,4.352738664105528,4.352387795677592,4.352368928750677,4.352365750827042,4.352364882070378,4.35236437120734
0.6520100502512562,3.833446229853153,3.8328470120796356,3.832814726354518,3.8328092860312517,3.83280779857971,3.8328069238221296
0.7525125628140703,3.4627566815809527,3.4618038234756514,3.461752364570682,3.4617436894775873,3.461741317197883,3.461739921936585
0.8530150753768844,3.1878313561297826,3.1863950510943235,3.186317279572754,3.1863041617757384,3.1863005739083228,3.186298463449141
0.9535175879396985,2.978098508303224,2.976021802073274,2.9759090242961928,2.9758899908451024,2.9758847838548776,2.97588172059143
1.0540201005025125,2.8146453575222545,2.8117414860542542,2.811583277027938,2.8115565589183698,2.8115492478873243,2.8115449461955673
1.1545226130653266,2.685150450542786,2.681200198989185,2.6809842193128293,2.6809477191858653,2.680937728832864,2.68093184973635
1.2550251256281406,2.581250470321417,2.5759996018518048,2.5757114108046233,2.5756626696969933,2.575649325106789,2.5756414707596167
1.3555276381909547,2.4970778827843993,2.4902346821745223,2.489857548861641,2.4897937122990856,2.4897762294371883,2.4897659374684697
1.4560301507537687,2.428403617003357,2.419636588914205,2.419151303230885,2.419069086931489,2.4190465630144615,2.419033300773939
1.556532663316583,2.3721112731720795,2.3610470291936636,2.3604317141802182,2.360327369604309,2.3602987733868654,2.3602819321265334
1.657035175879397,2.3258620916370325,2.312083453802462,2.3113133807606543,2.311182660711634,2.3111468227432077,2.3111257117646735
1.7575376884422111,2.28787433615015,2.2709186780467547,2.2699660855840476,2.2698042100320777,2.269759812926764,2.269733653718977
1.8580402010050252,2.2567737990326107,2.2361316391256647,2.2349655570962024,2.234767179365605,2.2347127481210363,2.234680668508114
1.9585427135678393,2.2314899201318434,2.206603775703329,2.2051898548313766,2.2049490282640956,2.204882920657131,2.204843948971562
2.059045226130653,2.211181979093756,2.1814454834601964,2.179745831268057,2.1794559764503756,2.1793763735307734,2.179329432823331
2.159547738693467,2.1951856097779605,2.1599428903101083,2.157915913830983,2.1575697864493275,2.157474683146853,2.1574185854412566
2.2600502512562812,2.1829733552757054,2.141518665271015,2.1391189209087162,2.1387085802829198,2.138595776138733,2.138529216736386
2.3605527638190953,2.1741251201651606,2.1257027138508007,2.1228807646518844,2.122397542980558,2.122264633010089,2.122186184848158
2.4610552763819094,2.1683057276312665,2.1121099644959,2.108812245023671,2.1082467173660695,2.1080910830579525,2.1079991911224716
2.5615577889447234,2.1652476622013332,2.1004233244378128,2.0965920133791203,2.0959339683905633,2.0957527688443127,2.0956457446389893
2.6620603015075375,2.164737654885792,2.0903804599269087,2.085953360518718,2.0851917719517936,2.084981935155742,2.084857951226413
2.762562814070352,2.1666061548244366,2.0817634437126933,2.0766738720429143,2.07579687102381,2.0755550852741775,2.07541216978857
2.863065326633166,2.1707189965675617,2.074390578155762,2.0685672593689013,2.067562107456783,2.067284812918508,2.0671208443008053
2.96356783919598,2.176970756465769,2.068109887135577,2.0614768595558393,2.0603299225928233,2.060013303002826,2.0598260046226256
3.064070351758794,2.1852794218415106,2.0627939004916525,2.055270427661961,2.0539671504214687,2.0536071249352603,2.0533940598506604
3.1645728643216082,2.1955820899006615,2.058335448338258,2.049835938961523,2.0483608206034556,2.0479530357863234,2.047711601541112
3.2650753768844223,2.207831481083985,2.054644250599028,2.045078186356575,2.0434147566984646,2.0429545786628514,2.042682002138025
3.3655778894472363,2.221993101374191,2.0516441371403618,2.040916008350772,2.0390468049647534,2.0385293116557985,2.0382226439758866
3.4660804020100504,2.238042925141995,2.0492707711231204,2.0372800201922363,2.0351865663382123,2.0346065399697535,2.0342626514646476
3.5665829145728645,2.2559654980012507,2.047469776212163,2.0341107488113916,2.0317735322170116,2.0311254518605963,2.030741027083792
3.6670854271356785,2.2757523803387083,2.0461951895763675,2.0313570934715326,2.0287555459696263,2.0280335802992857,2.0276051131035757
3.7675879396984926,2.297400868447698,2.04540817894095,2.028975050377919,2.0260875284117215,2.0252855286073608,2.02480931727915
3.8680904522613067,2.3209129427852653,2.045075974580788,2.026926652117107,2.023730418123062,2.0228419109353695,2.0223140533888455
3.9685929648241207,2.3462944026991215,2.0451709769813085,2.0251790826353644,2.0216502873124833,2.0206684682922536,2.020084857324669
4.069095477386934,2.3735541546994186,2.045670008610705,2.023703936181847,2.019817601655603,2.0187353285502665,2.018091647159616
4.169597989949748,2.4027036274722704,2.0465536843382193,2.0224765947331034,2.0182065986206426,2.0170163849406983,2.0163081017070192
4.2701005025125625,2.4337562917133897,2.0478058798672687,2.021475703249746,2.0167947636318844,2.0154887723897525,2.0147111369212585
4.3706030150753765,2.4667272667769105,2.0494132814077646,2.020682725972234,2.0155623872763155,2.0141324248999517,2.0132804633451267
4.471105527638191,2.501632999295392,2.0513650029009685,2.0200815700525014,2.014492189848691,2.0129297002720943,2.0119982108988124
4.571608040201005,2.538491001492045,2.0536522595950086,2.019658265303949,2.01356900201606,2.011865060948584,2.0108486097912426
4.672110552763819,2.577319638998438,2.056268088775353,2.0194006908597055,2.012779492390124,2.0109248017662926,2.009817718341862
4.772613065326633,2.6181379597056473,2.0592071100796376,2.019298341155498,2.012111934422298,2.010096817033588,2.0088931901273948
4.873115577889447,2.6609655565885126,2.062465319146777,2.0193421249754864,2.0115560063583415,2.009370400668192,2.008064074190194
4.973618090452261,2.7058224586096085,2.066039909426353,2.0195241923769944,2.0111026190670915,2.008736074210187,2.0073206431223953
5.074120603015075,2.7527290447779094,2.0699291178534915,2.019837785190899,2.0107437674386843,2.0081854384053544,2.0066542447210205
5.174623115577889,2.801705977243406,2.0741320908146577,2.020277107516222,2.010472401769512,2.007711044775901,2.006057173631006
5.275125628140704,2.8527741499822774,2.0786487674211305,2.0208372132204455,2.010282316144186,2.00730628418868,2.0055225599862125
5.375628140703518,2.9059546501911266,2.0834797775936633,2.021513907945344,2.010168051313135,2.0069652899193557,2.005044272546822
5.476130653266332,2.9612687299819487,2.0886263528633324,2.0223036635211695,2.010124809967555,2.006682853114084,2.004616834234643
5.576633165829146,3.018737786367397,2.0940902481255215,2.0232035430254443,2.0101483826469337,2.0064543488837745,2.0042353483013775
5.67713567839196,3.0783833478608664,2.0998736728590797,2.0242111349991045,2.010235082790897,2.0062756715425727,2.0038954336414165
5.777638190954774,3.140227066298219,2.105979230551142,2.025324495562518,2.0103816896769846,2.00614317773202,2.0035931679906516
5.878140703517588,3.204290712726013,2.112409865258266,2.026542097365312,2.0105853981774375,2.006053636363865,2.003325037944209
5.978643216080402,3.2705961764018436,2.1191688143932357,2.0278627844637906,2.01084377442795,2.00600418447438,2.0030878948859687
6.0791457286432165,3.3391654661216483,2.1262595669595457,2.0292857323534865,2.0111547166351826,2.005992288216858,2.0028789160565252
6.1796482412060305,3.4100207132313756,2.13368582656688,2.03081041249662,2.011516420362106,2.006015708331267,2.002695570098554
6.280150753768845,3.4831841758004143,2.141451478654373,2.0324365607786534,2.0119273477246833,2.0060724695244803,2.00253558651299
6.380653266331659,3.558678243534944,2.149560561427255,2.034164149407685,2.0123862000130464,2.0061608332741234,2.002396928539062
6.481155778894473,3.636525443093833,2.1580172400790323,2.0359933618377415,2.0128918933176108,2.0062792736364186,2.0022777690385363
6.581658291457287,3.7167484435403852,2.166825783927769,2.037924570354001,2.0134435367976606,2.0064264556954408,2.002176469021596
6.682160804020101,3.7993700617220973,2.1759905461429216,2.039958316006449,2.014040413278386,2.0066012163397002,2.0020915585002528
6.782663316582915,3.8844132674194483,2.185515945780016,2.0420952906197196,2.0146819619036798,2.006802547093251,2.0020217193964776
6.883165829145729,3.9719011881452273,2.1954064518753107,2.044336320642141,2.01536776260728,2.0070295787638313,2.0019657702675615
6.983668341708543,4.0618571135090775,2.2056665693824944,2.0466823526271605,2.0160975221950546,2.007281567700748,2.001922652641389
7.084170854271357,4.154304499089139,2.2163008267591557,2.049134440166282,2.0168710618572048,2.0075578834811796,2.0018914187803056
7.184673366834171,4.249266969774685,2.2273137650329184,2.051693732114926,2.017688305951499,2.007857997865923,2.0018712207145737
7.285175879396985,4.346768322561387,2.238709928196299,2.0543614619719133,2.018549271917934,2.008181474884893,2.0018613004057304
7.385678391959799,4.446832528794902,2.2504938547959927,2.0571389382899157,2.0194540612019485,2.0085279619294116,2.0018609809168457
7.486180904522613,4.549483735869549,2.2626700705967497,2.060027536008696,2.0204028510777863,2.0088971817427788,2.0018696584811724
7.586683417085427,4.6547462683973615,2.275243082212677,2.0630286886155065,2.021395887276222,2.0092889252132564,2.001886795373298
7.687185929648241,4.7626446288691895,2.288217371609862,2.0661438810480064,2.0224334773318584,2.009703044884586,2.001911913497885
7.7876884422110555,4.87320349783424,2.301597391393975,2.0693746432646063,2.0235159845748116,2.0101394491087476,2.001944588620703
7.88819095477387,4.986447733627672,2.3153875608050765,2.072722544415533,2.024643822700017,2.0105980967741255,2.001984445175075
7.988693467336684,5.102402371677955,2.32959226234947,2.076189187555293,2.0258174508547944,2.0110789925496,2.002031151584259
8.089195979899497,5.221092623426843,2.3442158390051833,2.0797762048436303,2.027037369191786,2.0115821825916167,2.002084416046758
8.18969849246231,5.342543874895225,2.3592625919436445,2.0834852531878196,2.028304114840142,2.0121077506670026,2.0021439827373215
8.290201005025125,5.466781684927882,2.374736778715498,2.0873180102841276,2.0296182582528712,2.012655814649361,2.0022096283814426
8.390703517587939,5.593831783149551,2.3906426118532775,2.091276171020737,2.030980399892763,2.013226523351369,2.002281159165629
8.491206030150753,5.723720067663632,2.406984257847982,2.0953614442083577,2.0323911672232406,2.0138200536592574,2.0023584079497225
8.591708542713567,5.856472602523618,2.423765836460441,2.0995755496082364,2.033851211974057,2.0144366079392952,2.002441231751026
8.692211055276381,5.992115615005848,2.440991420331878,2.1039202152303687,2.0353612076548337,2.0150764116892055,2.0025295094731694
8.792713567839195,6.130675492710584,2.458665034861224,2.1083971748774935,2.0369218472922785,2.0157397114102684,2.0026231398554115
8.89321608040201,6.2721787805167235,2.476790658319608,2.113008165912872,2.03853384136935,2.0164267726783143,2.002722039620559
8.993718592964823,6.416652177413751,2.4953722221750327,2.11775492723206,2.0401979159469,2.017137878394055,2.00282614180192
9.094221105527637,6.564122533232832,2.514413611602642,2.1226391974208267,2.04191481095027,2.017873327195173,2.002935394231678
9.194723618090451,6.7146168452972335,2.5339186661581117,2.127662713083115,2.0436852786051034,2.0186334320143664,2.003049758174843
9.295226130653266,6.868162255010592,2.5538911805936952,2.1328272073244903,2.045510082008216,2.0194185187691245,2.00316920709454
9.39572864321608,7.02478604439999,2.5743349057982314,2.1381344083779243,2.047389993820788,2.0202289251704446,2.0032937255357957
9.496231155778894,7.184515632629203,2.5952535498441014,2.143586038360014,2.0493257950723964,2.0210649996389694,2.003423308116278
9.596733668341708,7.347378572496097,2.6166507791256106,2.149183812146824,2.0513182740655824,2.021927100318163,2.003557958613579
9.697236180904522,7.5134025469267,2.6385302195746774,2.1549294363595957,2.053368225371625,2.022815594175186,2.003697689139654
9.797738693467336,7.682615365477201,2.6608954579409803,2.1608246084514042,2.055476448909153,2.023730856181034,2.0038425193939733
9.89824120603015,7.855044960853954,2.683750043124895,2.1668710158867066,2.057643749098025,2.0246732685623545,2.0039924759877468
9.998743718592964,8.030719385460339,2.7070974875526304,2.173070335406413,2.0598709340816717,2.0256432201180856,2.00414759183235
10.099246231155778,8.20966680797836,2.73094126858396,2.1794242323717934,2.062158815011737,2.0266411055947433,2.004307905585747
10.199748743718592,8.391915509991867,2.75528482994389,2.185934360181093,2.064508205389483,2.0276673251147916,2.0044734611512984
10.300251256281408,8.577493882657333,2.780131583170405,2.1926023597532853,2.0669199204589432,2.0287222836530514,2.004644307223915
10.400753768844222,8.7664304234274,2.8054849090712506,2.199429859073848,2.069394776647303,2.029806390556637,2.004820496878974
10.501256281407036,8.958753732831557,2.8313481591834124,2.206418472797889,2.0719335910484227,2.030920059104303,2.0050020871998986
10.60175879396985,9.15449251131766,2.8577246572296042,2.2135698019063326,2.0745371809458253,2.032063706101524,2.0051891389406564
10.702261306532664,9.353675556157393,2.8846177005666997,2.220885433411225,2.0772063633717974,2.033237751507964,2.0053817162198353
10.802763819095478,9.556331758418192,2.9120305616215982,2.2283669401065436,2.0799419546996054,2.034442618094325,2.0055798862432486
10.903266331658292,9.762490100003596,2.9399664893105206,2.2360158803611645,2.082744770266094,2.035678731125858,2.0057837190523315
11.003768844221106,9.97217965076362,2.96842871043822,2.243833797950921,2.085615624022207,2.0369465180700845,2.0059932872958512
11.10427135678392,10.185429565676213,2.99742043107402,2.251822221926906,2.088555328209193,2.0382464083265117,2.0062086660226868
11.204773869346734,10.402269082100625,3.026944837901988,2.259982666517395,2.0915646930584897,2.0395788329763316,2.0064299324936674
11.305276381909549,10.622727517103016,3.057005099542926,2.2683166310609484,2.0946445265134384,2.0409442245503127,2.0066571660106254
11.405778894472363,10.846834264854506,3.0876043678462026,2.2768255999684377,2.0977956339711894,2.042343016813242,2.006890447761023
11.506281407035177,11.074618794101465,3.118745779149732,2.2855110427118985,2.101018818043286,2.0437756445634445,2.0071298606766597
11.60678391959799,11.306110645707745,3.1504324555067225,2.294374413838254,2.104314878333562,2.04524254344605,2.0073754893050992
11.707286432160805,11.541339430268213,3.182667505878044,2.3034171530060887,2.1076846112321195,2.0467441497788106,2.0076274196926134
11.807788944723619,11.780334825792883,3.2154540272893137,2.3126406850437844,2.1111288097242586,2.048280900389375,2.0078857392775253
11.908291457286433,12.023126575460733,3.248795105952005,2.322046420027415,2.114648263213337,2.0498532324630427,2.0081505367929657
12.008793969849247,12.26974448544218,3.282693818348082,2.3316357533769323,2.1182437573566255,2.0514615834001106,2.0084219021781333
12.109296482412061,12.520218422789076,3.317153232277832,2.3414100659692454,2.1219160739133134,2.0531063906820206,2.0086999264972523
12.209798994974875,12.77457831339099,3.3521764078707252,2.351370724266889,2.1256659906038933,2.054788091745568,2.0089847018654865
12.31030150753769,13.032854139996441,3.3877663985592825,2.3615190804610644,2.129494280980206,2.0565071238645354,2.0092763213811446
12.410804020100503,13.295075940297735,3.4239262520160465,2.3718564726278943,2.1334017143055135,2.058263924038151,2.009574879063581
12.511306532663317,13.561273805077967,3.460659011053873,2.382384224896815,2.1373890554439994,2.0600589288858435,2.0098804697962342
12.611809045226131,13.831477876418699,3.497967714489862,2.393103647630089,2.141457064759159,2.0618925745478065,2.010193189274333
12.712311557788945,14.105718345966832,3.535855397973325,2.4040160376124757,2.1456064980205736,2.0637652965909448,2.0105131339568048
12.81281407035176,14.38402545325916,3.574325094778295,2.415122678250153,2.1498381063186196,2.0656775299197982,2.010840401021995
12.913316582914574,14.66642948410305,3.6133798365611085,2.426424839778046,2.154152635986683,2.067629708692101,2.0111750883268384
13.013819095477388,14.95296076901172,3.653022654083702,2.437923779474747,2.158550828530492,2.069622266238638,2.0115172943691424
13.114321608040202,15.243649681692563,3.693256577903275,2.4496207418842686,2.1630334205642066,2.07165563498712,2.0118671182526953
13.214824120603016,15.538526637587045,3.7340846390290348,2.461516959043919,2.1676011437529232,2.07373024638981,2.0122246596549274
13.31532663316583,15.837622092460528,3.775509869546786,2.4736136507176085,2.172254724761305,2.0758465308546596,2.012590018796885
13.415829145728644,16.14096654104066,3.817535303212143,2.4859120246339543,2.176994885208012,2.078004917679739,2.012963296415293
13.516331658291458,16.44859051570272,3.860163976013158,2.4984132767285736,2.1818223416256997,2.0802058349907715,2.0133445937365164
13.616834170854272,16.76052458520054,3.9033989267032303,2.5111185913899945,2.1867378054263025,2.082449709681587,2.013734012452234
13.717336683417086,17.076799353441487,3.947243197305106,2.5240291417086365,2.1917419828713847,2.084736967357335,2.014131654696667
13.8178391959799,17.397445458304148,3.9916998335868423,2.5371460897283606,2.1968355750473214,2.087068032280314,2.0145376230252148
13.918341708542714,17.722493570497292,4.036771885510608,2.5504705867000945,2.2020192778451113,2.0894433273182815,2.014952020394367
14.018844221105528,18.051974392458774,4.082462407655166,2.564003773337084,2.2072937819446112,2.0918632738951257,2.0153749501427747
14.119346733668342,18.38591865729301,4.128774459612927,2.5777467800713363,2.212659772803016,2.0943282919437807,2.0158065159733622
14.219849246231156,18.7243571277458,4.175711106362428,2.5917007273108505,2.2181179306473924,2.0968387998612994,2.0162468219363996
14.32035175879397,19.067320595215143,4.223275418617099,2.6058667256972616,2.2236689304711095,2.099395214465977,2.016695972413436
14.420854271356784,19.414839878796922,4.271470473151183,2.6202458763635175,2.229313442033992,2.1019979509564473,2.0171540721020125
14.521356783919598,19.76694582436411,4.32029935310363,2.6348392711912716,2.2350521298660513,2.1046474228726813,2.0176212260010935
14.621859296482413,20.123669303678533,4.369765148260826,2.649647993067663,2.240885653274639,2.1073440420588043,2.0180975393971443
14.722361809045227,20.48504121353385,4.419870955318954,2.6646731161411896,2.2468146663548856,2.1100882186276726,2.0185831178507954
14.82286432160804,20.851092474928823,4.470619878126814,2.679915706076386,2.252839818003281,2.1128803609271563,2.019078067184046
14.923366834170855,21.221854032269686,4.522015027909878,2.6953768203070543,2.258961751934275,2.1157208755080594,2.0195824934679587
15.023869346733669,21.597356852600683,4.574059523476362,2.711057508287801,2.2651811066997602,2.118610167093638,2.0200965030107945
15.124371859296483,21.977631924861683,4.626756491406075,2.726958811743647,2.2714985157113206,2.1215486385506592,2.0206202023465623
15.224874371859297,22.362710259171987,4.680109066222787,2.7430817649175,2.277914607265126,2.124536690861962,2.0211536982239333
15.325376884422111,22.752622886139324,4.7341203905508245,2.759427394815295,2.2844300045693613,2.127574723100478,2.021697097595506
15.425879396984925,23.1474008561932,4.788793615256619,2.7759967214486188,2.2910453257740655,2.13066313240467,2.0222505076073736
15.52638190954774,23.547075238941616,4.84413189957587,2.7927907580746427,2.2977611840032934,2.133802313955352,2.0228140355889885
15.626884422110553,23.951677122550446,4.900138411227011,2.809810511433218,2.304578187389474,2.1369926609538625,2.0233877890432823
