tau,N_2,N_4,N_6,N_8,N_10,N_16
0.25,4.020810754177687,4.020811607252703,4.020811652939183,4.020811660628425,4.020811662729833,4.020811663965324
0.35050251256281406,2.8821929834783826,2.882195348603156,2.882195475397791,2.882195496742222,2.882195502575919,2.882195506005904
0.4510050251256281,2.2547217299677813,2.2547268088128667,2.2547270814631015,2.2547271273730254,2.254727139922022,2.2547271473007857
0.5515075376884422,1.8589294929443907,1.8589388707783538,1.8589393750724819,1.858939460016062,1.8589394832373778,1.8589394968924533
0.6520100502512562,1.5876550164420036,1.5876706903864752,1.5876715349744468,1.5876716772945405,1.5876717162068419,1.5876717390909163
0.7525125628140703,1.3909808153847134,1.3910052277609783,1.391006546335818,1.3910067686305922,1.3910068294195777,1.3910068651729397
0.8530150753768844,1.2425109091395117,1.242546985227683,1.2425489390418085,1.2425492686052542,1.2425493587457719,1.2425494117687284
0.9535175879396985,1.1269749059328695,1.127026095380609,1.127028876067921,1.1270293453858662,1.1270294737796132,1.1270295493142153
1.0540201005025125,1.034923923750185,1.0349942448014293,1.0349980774731702,1.0349987247699552,1.0349989018974952,1.0349990061178573
1.1545226130653266,0.9601968791554791,0.9602909648217812,0.9602961114018905,0.9602969812325326,0.9602972193182858,0.9602973594287224
1.2550251256281406,0.8986041837804392,0.8987273290489052,0.8987340918129413,0.8987352356953606,0.8987355488841468,0.898735733224323
1.3555276381909547,0.8471970138154099,0.8473552229777684,0.8473639482584255,0.8473654253401554,0.8473658298838369,0.8473660680401034
1.4560301507537687,0.8038392170170416,0.8040392502136137,0.8040503322354345,0.8040522099891662,0.8040527244419217,0.804053027363996
1.556532663316583,0.766945070815996,0.7671944889152195,0.767208373721247,0.76721072866359,0.7672113740843531,0.7672117542065151
1.657035175879397,0.7353124760800741,0.7356196830573631,0.7356368724911572,0.735639790919093,0.7356405910797245,0.7356410624457104
1.7575376884422111,0.708013384032166,0.7083876660694631,0.7084087217770819,0.7084123005167666,0.7084132821145702,0.7084138605053781
1.8580402010050252,0.6843197850203919,0.6847713456177666,0.6847968930359064,0.684801240198723,0.6848024330719834,0.6848031361358378
1.9585427135678393,0.6636524843680127,0.6641924748388367,0.6642232071372907,0.6642284428783364,0.6642298802236342,0.6642307276074091
2.059045226130653,0.6455448788923832,0.6461854237016222,0.6462221056504734,0.646228362925015,0.6462300815151627,0.6462310949966065
2.159547738693467,0.62961684668439,0.6303710631830378,0.6304145349174869,0.6304219602312778,0.6304240006328219,0.6304252042529914
2.2600502512562812,0.6155556015016551,0.6164376137069569,0.6164887943653268,0.6164975485150828,0.6164999553044161,0.6165013754997828
2.3605527638190953,0.6031014356311466,0.6041263817998116,0.6041862730130085,0.6041965318137343,0.6041993537909754,0.6042010195247304
2.4610552763819094,0.59203695340006,0.5932209872380797,0.5932906764515584,0.5933026314478339,0.5933059218477338,0.5933078647398814
2.5615577889447234,0.582178836312749,0.5835391217588782,0.5836197853709064,0.5836336445296431,0.583637461228887,0.5836397156847759
2.6620603015075375,0.5733714704943453,0.5749261701031436,0.5750190764058415,0.5750350647884113,0.5750394705087886,0.5750420738457909
2.762562814070352,0.5654819619690971,0.5672502190023196,0.5673567309145182,0.5673750913265306,0.5673801538335407,0.5673831464056449
2.863065326633166,0.5583961985898792,0.5603981130008586,0.5605196905842464,0.5605406842016039,0.5605464764981586,0.5605499018182958
2.96356783919598,0.5520157100405056,0.5542723086041473,0.5544105113564344,0.5544344183266144,0.5544410188415846,0.5544449237015541
3.064070351758794,0.5462551425981369,0.5487883434987137,0.5489448324196107,0.5489719524374242,0.5489794452088493,0.5489838797967573
3.1645728643216082,0.5410402119515266,0.5438727841912633,0.5440493236189485,0.5440799764762789,0.5440884513291339,0.5440934693442936
3.2650753768844223,0.5363060310646802,0.5394615490980866,0.539660008315498,0.5396945344247649,0.5397040871432277,0.5397097459085076
3.3655778894472363,0.5319957347110942,0.5354985287432147,0.5357208833549713,0.5357596442462543,0.5357703767404814,0.5357767373121122
3.4660804020100504,0.528059340507486,0.5319344429189788,0.5321827760009945,0.5322261547929256,0.5322381752603723,0.5322453025352534
3.5665829145728645,0.5244527998602347,0.5287258882388615,0.5290023912637903,0.5290507931084576,0.5290642161898245,0.5290721790103853
3.6670854271356785,0.5211372024686456,0.5258345397358902,0.5261415132784291,0.5261953657806485,0.5262103127105557,0.5262191839672443
3.7675879396984926,0.5180781058012519,0.5232264779249935,0.523566332151792,0.523626085763184,0.5236426845157003,0.5236525412471836
3.8680904522613067,0.5152449669136172,0.5208716186937282,0.5212468736432272,0.5213130020316011,0.5213313874607642,0.5213423109519303
3.9685929648241207,0.5126106585694932,0.5187432279736379,0.519156513631593,0.5192295140261786,0.519249828001655,0.5192619038795127
4.069095477386934,0.5101510551975009,0.5168175067099829,0.5172715628867437,0.5173519563998339,0.5173743479378684,0.5173876662654422
4.169597989949748,0.5078446770094847,0.5150732344374602,0.5155709104532874,0.515659242378865,0.5156838677686696,0.5156985231369834
4.2701005025125625,0.5056723828072283,0.513491461966668,0.5140357161514945,0.5141325562414056,0.5141595791671338,0.5141756707853802
4.3706030150753765,0.5036171037479535,0.5120552454270623,0.5126491444411551,0.5127550871593822,0.5127846788178283,0.5128023106018079
4.471105527638191,0.5016636117287755,0.5107494152998142,0.511396133281787,0.5115117980373437,0.511544137251497,0.5115634179104137
4.571608040201005,0.4997983171640679,0.5095603751862262,0.5102631927347963,0.5103892240937412,0.5104244974223148,0.5104455405440003
4.672110552763819,0.4980090918269771,0.5084759259536729,0.5092382289494695,0.5093752968264997,0.5094136986695412,0.5094366228041785
4.772613065326633,0.49628511315287577,0.5074851116270724,0.5083103899006883,0.5084591897307346,0.5085009224314145,0.5085258511738208
4.873115577889447,0.4946167269936775,0.506578083984938,0.5074699298372873,0.5076311827274971,0.5076764566701577,0.5077035187406775
4.973618090452261,0.49299532629514287,0.5057459833025498,0.5067080898834584,0.5068825427459132,0.5069315764504456,0.5069609057745001
5.074120603015075,0.49141324356605703,0.5049808330821359,0.5060169926329465,0.5062054182984221,0.5062584385110313,0.5062901742973578
5.174623115577889,0.48986365533534304,0.5042754469379861,0.5053895489038256,0.5055927462168689,0.5056499879972697,0.505684274814881
5.275125628140704,0.48834049706411653,0.5036233460764459,0.5048193750936686,0.5050381689892319,0.5050998757943095,0.5051368636481943
5.375628140703518,0.48683838720496964,0.5030186860372668,0.5043007198014643,0.504535961363306,0.5046023851272656,0.5046422295328422
5.476130653266332,0.4853525592888389,0.5024561915522302,0.5038283985720868,0.504080965073122,0.5041523662841392,0.5041952283404723
5.576633165829146,0.48387880107739806,0.5019310985360339,0.5033977357782065,0.5036685307029669,0.5037451784763445,0.5037912249381251
5.67713567839196,0.4824133999514804,0.5014391023585288,0.5030045127886426,0.5032944658379862,0.5033766379858127,0.5034260413341001
5.777638190954774,0.4809530938179328,0.5009763116608754,0.5026449216856533,0.5029549887638448,0.5030429718611475,0.5030959103728613
5.878140703517588,0.47949502691211454,0.5005392070745918,0.5023155238900726,0.5026466870743468,0.5027407765217213,0.502797434337876
5.978643216080402,0.4780367099538534,0.5001246042846492,0.5020132131353978,0.5023664806281078,0.5024669807108046,0.5025275479034675
6.0791457286432165,0.4765759841834246,0.49972962094809037,0.5017351823022658,0.5021115883657086,0.5022188123091527,0.5022834849471081
6.1796482412060305,0.4751109888629602,0.49935164704000856,0.5014788936851213,0.5018794985591348,0.5019937685808525,0.5020627487939502
6.280150753768845,0.4736401318792244,0.4989883182507255,0.5012420523148958,0.5016679421173197,0.5017895894752404,0.5018630855174063
6.380653266331659,0.472162063127196,0.49863749210293473,0.501022582006443,0.5014748686165363,0.5016042336536428,0.5016824599645268
6.481155778894473,0.4706756503914992,0.4982972264965173,0.5008186038384286,0.5012984247633451,0.5014358569486383,0.5015190342138716
6.581658291457287,0.4691799574752876,0.49796576042258595,0.5006284168072203,0.501136935031647,0.5012827929973961,0.5013711482074356
6.682160804020101,0.4676742243544923,0.49764149661782386,0.5004504804258382,0.500988884244912,0.5011435358201587,0.5012373023276868
6.782663316582915,0.466157849160005,0.49732298595596763,0.5002833990648076,0.5008529019004364,0.5010167241407241,0.5011161417165814
6.883165829145729,0.464630371811908,0.49700891339588377,0.5001259078543578,0.5007277480550828,0.5009011272683837,0.5010064421560038
6.983668341708543,0.4630914591487388,0.4966980853255333,0.49997685998725416,0.5006123006118007,0.5007956323806149,0.5009070973489375
7.084170854271357,0.4615408914113459,0.49638941815858867,0.49983521527900937,0.5005055438636952,0.5006992330632976,0.5008171074581329
7.184673366834171,0.45997854995548115,0.4960819280558769,0.4997000298576424,0.5004065581678137,0.500611018980629,0.5007355687744495
7.285175879396985,0.4584044060801423,0.4957747216574485,0.49957044686875435,0.5003145106344482,0.5005301665605347,0.5006616644006681
7.385678391959799,0.4568185108700619,0.49546698772312936,0.4994456880937586,0.5002286467297952,0.5004559305934237,0.500594655848626
7.486180904522613,0.45522098596082267,0.4951579895901164,0.49932504638979275,0.5001482827005213,0.5003876366528354,0.5005338754582216
7.586683417085427,0.4536120151440377,0.4948470583656851,0.4992078788693407,0.5000727987382771,0.500324674256027,0.5004787195563377
7.687185929648241,0.45199183673800153,0.4945335867815348,0.4990936007460482,0.5000016328106557,0.5002664906909999,0.5004286422821858
7.7876884422110555,0.4503607366563241,0.4942170236438387,0.4989816797807456,0.4999342750926273,0.5002125854439998,0.5003831500131044
7.88819095477387,0.4487190421134081,0.49389686881979067,0.4988716312684104,0.49987026293919473,0.5001625051682386,0.500341796331564
7.988693467336684,0.44706711591130677,0.49357266870745076,0.4987630135128058,0.4998091763460211,0.5001158391405922,0.5003041774801309
8.089195979899497,0.44540535125759084,0.4932440121410608,0.49865542374089256,0.49975063385014135,0.5000722151583913,0.5002699282565102
8.18969849246231,0.44373416706842733,0.4929105266888162,0.4985484944139209,0.49969428882767397,0.5000312958332223,0.500238718305587
8.290201005025125,0.44205400371517756,0.49257187530438606,0.49844188989640525,0.4996398261497534,0.49999277524296243,0.500210248769689
8.390703517587939,0.4403653191765332,0.4922277532973402,0.49833530344804705,0.4995869591617558,0.4999563759071262,0.5001842492621513
8.491206030150753,0.4386685855615418,0.4918778855911078,0.49822845450713094,0.4995354269543561,0.4999218460540632,0.5001604751327225
8.591708542713567,0.43696428597189774,0.49152202424021013,0.49812108623702833,0.4994849918980602,0.4998889571516541,0.5001387049964627
8.692211055276381,0.43525291167460084,0.4911599461813051,0.49801296331023426,0.49943543741565116,0.4998575016759458,0.5001187385005718
8.792713567839195,0.4335349595585623,0.4907914511951013,0.49790386990687874,0.4993865659694928,0.4998272910946747,0.5001003943061031
8.89321608040201,0.4318109298509789,0.49041636005846084,0.4977936079069073,0.49933819724290157,0.49979815404488726,0.5000835082637687
8.993718592964823,0.43008132407133715,0.4900345128680495,0.49768199525716444,0.49929016649682123,0.4997699346858991,0.5000679317650794
9.094221105527637,0.4283466432027616,0.4896457675187269,0.4975688644964391,0.49924232308487126,0.4997424912106631,0.5000535302518936
9.194723618090451,0.42660738606211096,0.4892499983215218,0.49745406142318505,0.4991945291114851,0.49971569450026654,0.5000401818690917
9.295226130653266,0.42486404785176196,0.4888470947475286,0.4973374438921127,0.49914665821933973,0.49968942690776097,0.5000277762465847
9.39572864321608,0.42311711887742864,0.48843696028540107,0.4972188807271884,0.49909859449362126,0.49966358115886944,0.5000162133982001
9.496231155778894,0.4213670834176429,0.48801951140133165,0.497098250739787,0.4990502314718704,0.4996380593583214,0.5000054027261975
9.596733668341708,0.41961441873169836,0.48759467659149414,0.4969754418418315,0.49900147124925054,0.49961277209165494,0.4999952621212531
9.697236180904522,0.4178595941939331,0.4871623955179151,0.49685035024473767,0.49895222367005493,0.4995876376133081,0.4999857171487378
9.797738693467336,0.41610307054320483,0.4867226182196231,0.4967228797358667,0.49890240559716154,0.4995625811127087,0.49997670031299596
9.89824120603015,0.41434529923732255,0.48627530439172867,0.49659294102499446,0.49885194025194146,0.4995375340508688,0.4999681503921366
9.998743718592964,0.4125867219030159,0.48582042272581333,0.49646045115402143,0.4988007566178506,0.4995124335607188,0.49996001183656485
10.099246231155778,0.41082776987279124,0.4853579503056512,0.496325332963808,0.4987487889015853,0.4994872219050571,0.49995223422514085
10.199748743718592,0.40906886380071583,0.48488787205288336,0.49618751461260285,0.4986959760462723,0.499461845986595,0.499944771773435
10.300251256281408,0.40731041334981527,0.48441018021779314,0.49604692914106935,0.4986422612916953,0.4994362569050931,0.4999375828890865
10.400753768844222,0.40555281694436124,0.4839248739108076,0.4959035140793921,0.49858759177704054,0.4994104095570775,0.4999306297697471
10.501256281407036,0.4037964615808645,0.48343195867078925,0.495757211092383,0.4985319181820775,0.499384262274052,0.49992387803952976
10.60175879396985,0.4020417226920962,0.4829314460665674,0.49560796565889786,0.4984751944030848,0.49935777649551527,0.49991729642027216
10.702261306532664,0.40028896405891473,0.4824233533285141,0.4954557267822289,0.4984173772601822,0.499330916473449,0.4999108564342802
10.802763819095478,0.3985385377651039,0.48190770300728625,0.49530044672845963,0.49835842623305454,0.4993036490052599,0.49990453213553493
10.903266331658292,0.3967907841908194,0.48138452265714327,0.49514208079005834,0.4982983032223377,0.499275943192449,0.49989829986663853
11.003768844221106,0.3950460320406011,0.48085384454151014,0.4949805870722487,0.4982369723342026,0.4992477702225443,0.49989213803903326
11.10427135678392,0.3933045984022425,0.4803157053586844,0.4948159262999313,0.4981743996859072,0.49921910317206686,0.49988602693426687
11.204773869346734,0.3915667888331168,0.4797701459858034,0.49464806164314634,0.4981105532302999,0.4991899168285161,0.49987994852428747
11.305276381909549,0.3898328974708412,0.47921721123937167,0.49447695855925855,0.498045402597453,0.4991601875295517,0.49987388630894897
11.405778894472363,0.3881032071654263,0.47865694965082417,0.49430258465022214,0.497978918951777,0.499129893017725,0.4998678251690776
11.506281407035177,0.38637798963029324,0.4780894132557529,0.4941249095334418,0.49791107486312625,0.49909901230927034,0.4998617512336119
11.60678391959799,0.3846575056097726,0.4775146573955642,0.4939439047248866,0.4978418441905484,0.49906752557560846,0.4998556517594684
11.707286432160805,0.38294200506089654,0.47693274053046125,0.49375954353324597,0.4977712019774578,0.49903541403634516,0.49984951502291675
11.807788944723619,0.38123172734749333,0.4763437240627554,0.4935718009640322,0.4976991243571334,0.4990026598626627,0.499843330221361
11.908291457286433,0.3795269014447617,0.4757476721696152,0.49338065363263783,0.4976255884675427,0.4989692460901084,0.49983708738453353
12.008793969849247,0.3778277461526711,0.47514465164445224,0.49318607968545713,0.4975505723745912,0.4989351565398799,0.4998307772942002
12.109296482412061,0.3761344703166776,0.47453473174622424,0.49298805872826057,0.4974740550029835,0.4989003757477915,0.4998243914115622
12.209798994974875,0.3744472730543865,0.47391798405601065,0.4927865717610955,0.49739601607395767,0.4988648889001866,0.49981792181161916
12.31030150753769,0.3727663439869179,0.4732944823402846,0.4925816011190525,0.497316436049228,0.49882868177612844,0.4998113611238271
12.410804020100503,0.3710918634738484,0.47266430242035873,0.4923731304183032,0.49723529608053296,0.4987917406952685,0.4998047024784502
12.511306532663317,0.3694240028507121,0.47202752204754456,0.49216114450687276,0.4971525779642427,0.4987540524708454,0.49979793945805884
12.611809045226131,0.36776292466813904,0.47138422078360587,0.49194562941966136,0.4970682641005353,0.4987156043673244,0.49979106605368623
12.712311557788945,0.36610878293180577,0.4707344798861335,0.4917265723372781,0.49698233745669357,0.4986763840622291,0.4997840766251942
12.81281407035176,0.3644617233424523,0.47007838219850673,0.4915039615482923,0.4968947815341223,0.4986363796117648,0.4997769658654472
12.913316582914574,0.3628218835353001,0.46941601204414213,0.4912777864145455,0.49680558033871886,0.49859557941986793,0.49976972876793074
13.013819095477388,0.3611893933182747,0.4687474551247585,0.4910480373392048,0.4967147183542698,0.4985539722103506,0.4997623605974837
13.114321608040202,0.35956437490850435,0.46807279842241933,0.49081470573726543,0.4966221805185735,0.49851154700184563,0.4997548568638474
13.214824120603016,0.35794694316662135,0.4673921301051339,0.49057778400824403,0.49652795220202195,0.4984682930852789,0.49974721329776256
13.31532663316583,0.3563372058284542,0.46670553943582455,0.4903372655108275,0.496432019188395,0.49842420000362686,0.499739425829369
13.415829145728644,0.3547352637337426,0.46601311668448336,0.4900931445392638,0.49633436765764927,0.49837925753373935,0.49973149056868943
13.516331658291458,0.35314121105155843,0.4653149530433636,0.4898454163013063,0.49623498417050127,0.4983334556700262,0.4997234037879971
13.616834170854272,0.35155513550215317,0.46461114054506153,0.48959407689754014,0.49613385565462537,0.49828678460982934,0.4997151619058878
13.717336683417086,0.3499771185749964,0.46390177198336374,0.48933912330193574,0.49603096939230223,0.4982392347403153,0.4997067614728921
13.8178391959799,0.34840723574279936,0.46318694083674267,0.4890805533434908,0.49592631300937323,0.4981907966267426,0.49969819915848224
13.918341708542714,0.3468455566713543,0.4624667411943974,0.48881836568883896,0.495819874465365,0.49814146100196893,0.4996894717393388
14.018844221105528,0.34529214542504605,0.46174126768474405,0.48855255982571,0.49571164204466533,0.49809121875707746,0.4996805760887573
14.119346733668342,0.3437470606679208,0.4610106154062702,0.48828313604714524,0.49560160434864137,0.49804006093301484,0.49967150916708586
14.219849246231156,0.3422103558602208,0.46027487986067456,0.4880100954363758,0.49548975028860154,0.49798797871313927,0.4996622680130945
14.32035175879397,0.3406820794503146,0.4595341568882206,0.48773343985228557,0.49537606907951365,0.4979349634165922,0.4996528497361887
14.420854271356784,0.3391622750619727,0.4587885426052365,0.4874531719153867,0.4952605502343963,0.49788100649241074,0.49964325150938443
14.521356783919598,0.3376509816769578,0.45803813334370264,0.48716929499424283,0.49514318355931414,0.4978260995143086,0.4996334705629728
14.621859296482413,0.33614823381291054,0.4572830255928686,0.486881813192286,0.4950239591489093,0.4977702341760601,0.49962350417880885
14.722361809045227,0.334654061696532,0.4565233159428467,0.4865907313349726,0.49490286738241074,0.49771340228742494,0.49961334968516397
14.82286432160804,0.3331684914320723,0.45575910103013584,0.48629605495723705,0.49477989892006774,0.4976555957705638,0.4996030044520879
14.923366834170855,0.33169154516514776,0.454990477485026,0.4859977902912015,0.4946550446999599,0.4975968066568908,0.4995924658872328
15.023869346733669,0.33022324124192076,0.4542175418808417,0.48569594425410684,0.4945282959351389,0.4975370270843241,0.49958173143209356
15.124371859296483,0.3287635943636828,0.4534403906849832,0.4853905244364341,0.4943996441110644,0.49747624929488876,0.4995707985586258
