Temperature,N_2,N_4,N_8,N_16
10.0,1.85588890550794,1.8551024945989358,1.8549056766248404,1.8548564585623846
6.666666666666666,1.4164958123057203,1.413914437095427,1.4132676594685016,1.4131058753108299
5.0,1.1610676434738953,1.1549832607964348,1.1534564292022942,1.1530743615434529
4.0,0.9855905090347122,0.9737369514082271,0.970756511574715,0.9700103305684323
3.333333333333333,0.8603375236003198,0.8399093345773876,0.8347605340865998,0.8334707057530617
2.8571428571428568,0.7709342837455062,0.7386042595030868,0.7304325254427866,0.7283839609672027
2.5,0.7089227064155665,0.6608605559115922,0.6486726213568669,0.6456147273862737
2.222222222222222,0.6689487622399615,0.600842253463325,0.5835074123823691,0.5791541333609898
2.0,0.6475321858427683,0.5546111033254421,0.5308627174090362,0.5248926066500039
1.8181818181818181,0.642393134368782,0.5194558803011868,0.4878931419140641,0.4799494605710664
1.6666666666666665,0.6520414786337638,0.49348401319642987,0.4525739400240124,0.4422647782391866
1.538461538461538,0.6755136722311966,0.47536048400146663,0.42344012002812303,0.4103385375814588
1.4285714285714282,0.7121997840713703,0.4641366026743111,0.3994154098661973,0.38305959043752785
1.333333333333333,0.7617277323633967,0.45913570832271916,0.3796981393297754,0.3595915587666239
1.25,0.8238845553621662,0.45987564357929,0.36368388469641466,0.33929549249510016
1.176470588235294,0.8985620424218718,0.4660153270930941,0.3509122080546631,0.3216766208761084
1.111111111111111,0.9857186428148992,0.4773173409511216,0.3410294040341976,0.30634711054066416
1.0526315789473681,1.0853524216894843,0.49362131546382526,0.33376203697929113,0.29299961897537335
1.0,1.1974816579992613,0.5148247002507578,0.32889785949373734,0.2813882173989754
0.9523809523809526,1.3221308116896382,0.5408686669799492,0.3262718558066258,0.271314455139072
0.9090909090909091,1.4593203427718242,0.5717276256702216,0.32575589237618235,0.26261701747910876
0.8695652173913044,1.6090593332201129,0.6074013285671385,0.3272509455419879,0.25516396494274257
0.8333333333333333,1.7713401914946723,0.6479088417766612,0.33068119907286,0.24884684599935994
0.8,1.9461349240524801,0.6932838929666705,0.33598949726183464,0.24357615693588716
0.7692307692307692,2.1333926039531637,0.7435712340109387,0.34313381678919663,0.2392778362181473
0.7407407407407407,2.3330377704483527,0.798823770609087,0.352084494497976,0.2358904857737796
0.7142857142857143,2.5449695500545175,0.8591002707086339,0.36282201927892516,0.23336319423241828
0.689655172413793,2.769061358399411,0.9244635160294996,0.3753352643779602,0.23165377018784042
0.6666666666666666,3.0051610512091402,0.9949787958321387,0.3896200644303459,0.23072732437140056
0.6451612903225806,3.2530914519353122,1.0707126801488913,0.4056780320738486,0.2305551131416247
0.625,3.5126511523375887,1.1517319943755857,0.4235156032691396,0.2311135772864022
0.6060606060606061,3.7836155665334044,1.2381029704732633,0.44314323257429306,0.2323835592324028
0.588235294117647,4.065738150515629,1.329890545521241,0.4645747169252715,0.23434963036347942
0.5714285714285714,4.358751772750107,1.427157763459641,0.48782664227837763,0.23699954821010252
0.5555555555555556,4.662370192415564,1.529965273858985,0.5129178912495281,0.24032377473777244
0.5405405405405405,4.97628960745918,1.6383709201173031,0.5398692522997343,0.24431509117416358
0.5263157894736842,5.300190265390163,1.7524293845241947,0.5687030622271892,0.24896825311259188
0.5128205128205128,5.6337380948993045,1.8721918979828465,0.5994429174849933,0.2542797067323407
0.5,5.976586360639604,1.9977060010812007,0.6321134177657488,0.2602473391840865
0.48780487804878053,6.328377296014585,2.129015334078972,0.6667399551049578,0.26687028278237845
0.4761904761904763,6.688743728437655,2.266159496966853,0.7033485192776385,0.2741487193544147
0.46511627906976744,7.057310669347668,2.409173903664156,0.7419655510576584,0.28208374141967796
0.4545454545454546,7.433696857537169,2.558089689433894,0.7826177920525298,0.29067722479114405
0.4444444444444444,7.817516261562519,2.7129336523321257,0.8253321835036287,0.2999316981586146
0.4347826086956522,8.208379506934074,2.8737281822221217,0.87013574929753,0.30985028287201916
0.4255319148936171,8.605895242590583,3.0404912490134617,0.917055532708953,0.32043658886725523
0.4166666666666667,9.00967145226899,3.213236392177653,0.9661184855550562,0.3316946488246333
0.4081632653061224,9.419316688826608,3.3919727053527042,1.017351462059009,0.34362887595901287
0.4,9.834441174583272,3.5767048940518604,1.0707811028017544,0.3562440097690961
0.3921568627450981,10.254657967604617,3.7674332639940395,1.1264338371832894,0.3695450597144385
0.3846153846153847,10.679583836682857,3.964153794247325,1.184335817440096,0.3835373078666916
0.37735849056603776,11.108840292110292,4.166858177812164,1.2445129031544442,0.39822624109690413
0.37037037037037035,11.542054346770685,4.375533913932136,1.3069905859715005,0.41361754962941416
0.36363636363636365,11.978859283404788,4.59016430120393,1.37179406357852,0.429717099514772
0.35714285714285715,12.418895399492897,4.810728609592981,1.4389480924730549,0.44653093214767825
0.3508771929824562,12.861810551571036,5.037202092871129,1.5084770617264356,0.4640652035379
0.3448275862068966,13.307260716497016,5.269556134897108,1.580404955166941,0.4823262394182789
0.3389830508474576,13.754910481655315,5.507758271858106,1.6547552874951033,0.5013204847889305
0.3333333333333333,14.20443345140671,5.751772348245161,1.7315511829219818,0.5210544649162347
0.3278688524590164,14.655512574108048,6.001558612605218,1.810815283702353,0.5415348623141489
0.32258064516129037,15.107840444801369,6.257073804689342,1.8925697616642856,0.5627684332868829
0.31746031746031744,15.561119554198868,6.51827123999045,1.9768363439358723,0.5847620329467484
0.3125,16.015062414010284,6.785100989540383,2.063636281092951,0.6075226201613713
0.3076923076923077,16.469391787379873,7.05750992003113,2.1529902754106613,0.6310572227751762
0.30303030303030304,16.923840660093177,7.33544185425914,2.244918640342083,0.6553729770466475
0.2985074626865672,17.378152393601777,7.618837659110973,2.339441093982786,0.6804770714009609
0.29411764705882354,17.832080649344,7.907635382311446,2.436576909439957,0.7063767773921935
0.2898550724637681,18.285389433362486,8.201770340351171,2.5363448225956975,0.7330794697342169
0.2857142857142857,18.737852969051715,8.501175277197065,2.638763073375846,0.7605925395134088
0.28169014084507044,19.189255685045616,8.805780445108084,2.743849368433885,0.7889234862602731
0.2777777777777778,19.639391977982488,9.115513735916414,2.8516209101490517,0.8180798716843084
0.273972602739726,20.088066296556278,9.430300795434484,2.96209433497833,0.8480692854823457
0.27027027027027023,20.53509264965298,9.750065169359196,3.07528583241625,0.878899428286818
0.26666666666666666,20.980294806395325,10.074728332074336,3.1912109503537183,0.9105779859965001
0.2631578947368421,21.423505812686322,10.404209945101018,3.309884794011413,0.9431127935539344
0.25974025974025977,21.864567884668727,10.738427831325717,3.4313219021749495,0.9765116419138644
0.25641025641025644,22.30333225402523,11.077298140875103,3.5555362297897357,1.010782415742291
0.2531645569620253,22.73965880909515,11.420735538543026,3.6825412677233103,1.0459330552791113
0.25,23.173415991167104,11.768653154373107,3.812349915504435,1.0819715311129832
0.24691358024691354,23.60448043944469,12.120962861651837,3.944974505428706,1.118905824950202
0.24390243902439027,24.032736781954384,12.477575263676355,4.080426886990526,1.1567440190888052
0.24096385542168672,24.458077424061045,12.83839984395368,4.218718283998838,1.1954941433311932
0.23809523809523803,24.880402239756755,13.20334508894948,4.35985946726987,1.2351643263967758
0.23529411764705882,25.299618303147717,13.572318525381027,4.503860501376055,1.2757627294437694
0.2325581395348837,25.71563972354644,13.94522696681947,4.650731102126901,1.3172974248544829
0.2298850574712644,26.12838723194445,14.32197634412126,4.800480190504183,1.3597766212644684
0.22727272727272727,26.537788116652145,14.702472118002467,4.95311635594808,1.403208518015822
0.22471910112359544,26.943775790434945,15.086619153390602,5.108647420706325,1.447601254878494
0.2222222222222222,27.34628969643391,15.474321819841917,5.267080867372006,1.4929629788675864
0.21978021978021975,27.74527491472236,15.86548424200229,5.428423291038996,1.539301933441511
0.2173913043478261,28.140682047630445,16.260010240048533,5.592681121955024,1.5866261571847575
0.2150537634408602,28.53246685091046,16.657803318529968,5.759859880136711,1.6349438881673037
0.21276595744680846,28.920590214863306,17.05876710811404,5.929964567065107,1.6842631148845801
0.21052631578947367,29.305017687101504,17.462805001749135,6.102999852766537,1.7345918902744173
0.20833333333333331,29.68571933716547,17.869820566177435,6.278969460725808,1.7859382572770186
0.20618556701030927,30.062669670999227,18.279717428180383,6.457876811310035,1.8383100631595137
0.2040816326530612,30.435847261244312,18.692399410407983,6.63972452119655,1.8917152710177543
0.202020202020202,30.80523452515872,19.107770550717618,6.82451486672685,1.9461614903897941
0.2,31.170817751747975,19.525735261656102,7.012249237353317,2.00165656666893
0.198019801980198,31.53258657877918,19.946198393624,7.202928614154543,2.058208036167497
0.196078431372549,31.890534176104254,20.369065053347445,7.396553363237659,2.1158232483698223
0.1941747572815534,32.244656628825496,20.794240898846066,7.593123145047506,2.174509795417746
0.19230769230769226,32.594953220052155,21.221632362436583,7.792637183746974,2.2342747215243763
0.19047619047619047,32.94142597381881,21.65114614888451,7.995093860903609,2.295125167940577
0.18867924528301885,33.284079494110514,22.082689765372084,8.200491270779974,2.357068346595633
0.18691588785046728,33.62292104540976,22.516171404505997,8.40882666159293,2.4201108011796073
0.18518518518518517,33.95796005474882,22.951500173038887,8.62009681875355,2.484259355287077
0.18348623853211005,34.28920833152228,23.388585555301297,8.834297772982037,2.5495207736528736
0.18181818181818182,34.61667968389047,23.82733820380729,9.051425313722607,2.615901272190977
0.18018018018018014,34.94038977970266,24.267669667075772,9.271474244587916,2.683407371035729
0.17857142857142855,35.26035619224062,24.709491984471335,9.494439140334592,2.7520451043049112
0.17699115044247787,35.57659823565912,25.15271886198723,9.720313844870482,2.821820836072643
0.17543859649122803,35.889136640686914,25.597264012304468,9.949091699224702,2.892740182693826
0.17391304347826086,36.19799373175448,26.04304315712225,10.180765579888769,2.96480945434694
0.17241379310344826,36.50319321502634,26.48997226555842,10.415327833038795,3.0380342351412515
0.17094017094017092,36.804759888991015,26.937968869419624,10.652770039948368,3.1124202614000676
0.1694915254237288,37.10271991684852,27.38695131931542,10.893084017771024,3.1879732800442064
0.16806722689075626,37.39710032718833,27.836839285199634,11.136259973798243,3.2646989770802253
0.16666666666666666,37.687929488718645,28.28755328804264,11.38228898216043,3.342602899298084
0.16528925619834708,37.97523611506626,28.739015464500607,11.63116058808484,3.4216906602619694
0.16393442622950818,38.259050284816816,29.191148584975913,11.88286458975153,3.501967843447297
0.16260162601626016,38.53940254934553,29.643877109734277,12.137390129632012,3.583440047253984
0.16129032258064513,38.816324246778926,30.09712637812842,12.394725847534572,3.666112798141951
0.16,39.08984712628215,30.550823194062215,12.654860435456353,3.7499919881156667
0.15873015873015872,39.36000382126092,31.004895560040726,12.917781655927005,3.8350830111117253
0.15748031496062992,39.62682712269648,31.459272514973364,13.183477569197041,3.921391787183474
0.15625,39.89035053094243,31.91388465245577,13.451935372352652,4.008924112319962
0.15503875968992245,40.15060766243566,32.36866392673093,13.723142185864035,4.097685736200963
0.15384615384615385,40.40763262552612,32.82354301584819,13.99708494313144,4.187682542542476
0.15267175572519082,40.66145988038815,33.278456693273455,14.273750065768114,4.278920666041392
0.1515151515151515,40.912123843165475,33.7333402932058,14.553123751203326,4.371406170981875
0.15037593984962405,41.15965935864733,34.18813101987377,14.835192059972087,4.4651449407788615
0.14925373134328357,41.404101412320514,34.64276702331509,15.119940664475687,4.560143371066872
0.14814814814814814,41.645484920562154,35.09718796559913,15.40735499761655,4.656407545058772
0.14705882352941174,41.883845083775775,35.55133454081926,15.697420128869572,4.7539438271274355
0.145985401459854,42.11921694279221,36.00514916031969,15.990121267268327,4.85275859805147
0.14492753623188406,42.35163578093999,36.45857524915728,16.28544278016553,4.952857882222179
0.1438848920863309,42.5811367900454,36.91155763201061,16.583369280836067,5.054248512778063
0.14285714285714285,42.80775480857133,37.36404214993443,16.88388498298209,5.156936470962458
0.14184397163120566,43.0315251204146,37.815976528655874,17.1869736830268,5.2609284500166735
0.1408450704225352,43.25248250047034,38.267309157489656,17.4926192649855,5.366230528332062
0.13986013986013984,43.47066193226915,38.71798987157201,17.800805033985977,5.472849309561445
0.13888888888888887,43.68609788239019,39.1679700312765,18.111514174193214,5.580790904313347
0.13793103448275862,43.8988249555188,39.61720193551945,18.424729841906874,5.690061643603277
0.136986301369863,44.108877532531984,40.065639361059056,18.74043434280133,5.800667703833919
0.13605442176870747,44.316289744055204,40.513236748735665,19.058610717574798,5.912615374762598
0.13513513513513511,44.52109545199837,40.959950529352604,19.379240536727085,6.025910478712393
0.13422818791946306,44.72332844621073,41.40573799421445,19.702306262404,6.140559047110752
0.13333333333333333,44.923022042348904,41.85055731504705,20.02778918686097,6.25656689226164
0.1324503311258278,45.12020991009182,42.29436815512867,20.355671071169663,6.373939904641617
0.13157894736842105,45.314924415256186,42.73713161079773,20.68593286955079,6.492683540843336
0.13071895424836602,45.507198579306305,43.17880884348955,21.018555815565712,6.612803346929747
0.12987012987012986,45.69706480035537,43.619363634060306,21.353520290172586,6.734304843489881
0.12903225806451613,45.88455534787516,44.05875955673416,21.690806924870003,6.857192921039944
0.1282051282051282,46.0697016112415,44.4969621597884,22.030395724279888,6.981472902400445
0.12738853503184713,46.252535576212125,44.93393724038455,22.372267108252345,7.107149847970671
0.12658227848101264,46.43308825648678,45.369652641157316,22.71640029826365,7.23422808682471
0.12578616352201255,46.61139055789146,45.80407619441061,23.062775006773386,7.362712954517947
0.125,46.78747314463075,46.23717783391492,23.411370565493982,7.492608149846422
0.12422360248447203,46.96136620854563,46.66892725305043,23.76216585513598,7.623918607232325
0.12345679012345677,47.133099675670316,47.099296481776335,24.11513987169335,7.7566483396127675
0.12269938650306746,47.3027033295353,47.52825719580933,24.470271216585292,7.890800895004821
0.1219512195121951,47.47020612523825,47.95578317213426,24.827538106000326,8.02638129007681
0.12121212121212119,47.63563719671154,48.38184817074149,25.18691870343138,8.163391890746313
0.12048192771084336,47.799025314537054,48.80642772214592,25.548391727970223,8.301837199181495
0.11976047904191615,47.9603984737704,49.22949753136752,25.911933859131175,8.441720419800333
0.11904761904761901,48.11978443829447,49.65103461809564,26.277523912042952,8.58304462227989
0.11834319526627217,48.27721140612684,50.07101647484706,26.645138650404228,8.725813077531518
0.11764705882352938,48.43270599666411,50.48942227878849,27.014755319396127,8.87002868131567
0.11695906432748537,48.5862953848082,50.90623091230685,27.386351878551658,9.015694572930416
0.11627906976744184,48.73800620230778,51.32142292389264,27.759904476105778,9.16281315095089
0.11560693641618494,48.88786446520641,51.734979146658404,28.135390498279236,9.311387423152734
0.11494252873563217,49.0358962217176,52.14688148078436,28.512786472141343,9.461419051098504
0.11428571428571427,49.1821269526547,52.55711276428507,28.89206937215891,9.6129110822705
0.11363636363636363,49.32658184210565,52.965656004052505,29.273215289762252,9.765865885416876
0.11299435028248586,49.46928583529854,53.37249566428289,29.656200720903744,9.92028461799652
0.11235955056179772,49.610263278019765,53.77761604541797,30.041002547521177,10.076170341524048
0.11173184357541899,49.74953876716423,54.181003064996546,30.427596150755768,10.233523927898933
0.11111111111111109,49.88713577587554,54.58264322625397,30.815958229824478,10.39234832860515
0.11049723756906077,50.02307805028657,54.98252219848667,31.206064683215125,10.552643568775611
0.10989010989010987,50.15738894989916,55.38062929445413,31.597891622353686,10.714412694382332
0.10928961748633877,50.290090770133176,55.776950969155926,31.991414809980313,10.877656366109386
0.10869565217391303,50.42120713223323,56.17147746863386,32.386610715724075,11.042376410439456
0.10810810810810809,50.55075921104365,56.56419730740326,32.78345392239331,11.208573167920344
0.1075268817204301,50.6787698195513,56.95510089765657,33.18192171797693,11.376249297475685
0.106951871657754,50.805259948334694,57.344178741814865,33.58198898824816,11.54540387029084
0.10638297872340423,50.93025143190553,57.73142262680272,33.9836317497344,11.716039559437837
0.10582010582010581,51.05376502918532,58.116823528864536,34.386825848135736,11.888157019318147
0.10526315789473682,51.17582151776807,58.50037442056458,34.79154669817411,12.06175592306907
0.10471204188481674,51.296441228786655,58.882067725000766,35.197770528731034,12.236837988808666
0.10416666666666666,51.415644593238106,59.26189732074655,35.605472295283775,12.413403718471354
0.10362694300518133,51.53345092053522,59.63985649900973,36.014628539830916,12.591453313864594
0.1030927835051546,51.64988047800374,60.015940677558305,36.4252147505712,12.770987645311095
0.10256410256410255,51.764951692551406,60.390143425464956,36.83720637527534,12.952007097002753
0.1020408163265306,51.87868433782788,60.76246171348859,37.25057957887109,13.134511017545098
0.1015228426395939,51.99109650580955,61.13289045454499,37.66531020236964,13.318501361998894
0.101010101010101,52.102207030487925,61.50142527766673,38.081373432073214,13.50397699707402
0.10050251256281405,52.212033613807854,61.868064563198324,38.49874631507309,13.690938372593864
0.09999999999999998,52.32059465876399,62.23280491928175,38.9174033189187,13.879385613836156
0.09950248756218905,52.42790740163411,62.595642998080756,39.33732239018628,14.069318509809973
0.099009900990099,52.533989283458844,62.956578083935405,39.75847732057817,14.260737213883353
0.0985221674876847,52.638857486749224,63.31560787345952,40.180846361130655,14.453641051755397
0.09803921568627448,52.74252872661803,63.67273183398088,40.604403470708945,14.648030544100651
0.09756097560975609,52.845019519192526,64.02794804670856,41.0291274825183,14.843904690365683
0.0970873786407767,52.94634641716836,64.3812571742221,41.45499141466039,15.041263170541434
0.09661835748792269,53.04652551930441,64.73265877466092,41.88197517255554,15.240105843585704
0.09615384615384613,53.145572194555655,65.08215276206444,42.310052610088796,15.440432089119934
0.09569377990430619,53.24350284189238,65.4297398704491,42.739201202295334,15.642241508887336
0.09523809523809522,53.34033194387956,65.77542159799395,43.169397955177686,15.845532256469378
0.0947867298578199,53.43607525494937,66.11919875730669,43.60061863243188,16.05030593938248
0.09433962264150943,53.53074753299281,66.4610722539844,44.03284051421968,16.256559191029293
0.09389671361502346,53.624363343564745,66.80104512725282,44.466041353664444,16.464293603931793
0.09345794392523361,53.71693739578479,67.13911869162763,44.90019551662749,16.67350585911537
0.09302325581395347,53.80848351597207,67.47529635161146,45.33528377827737,16.884197425591758
0.09259259259259259,53.89901602551457,67.80957873623964,45.77128050908544,17.096365231611202
0.09216589861751151,53.98854887613039,68.14197165258192,46.20816366093983,17.310009531572334
